# participant_id: P8
# gesture: medium
# trial_number: 2
# stream_name: Myo_EMG
# stream_type: emg
# timestamp: 20260420_152441
# samples: 5356
# duration_sec: 30.638
# nominal_sample_rate: 200.0
# effective_sample_rate: 174.78
#
timestamp,emg_1,emg_2,emg_3,emg_4,emg_5,emg_6,emg_7,emg_8
1303373.504431,-8.000000,7.000000,-25.000000,-5.000000,-2.000000,-2.000000,-3.000000,-10.000000
1303373.504441,0.000000,3.000000,-81.000000,-17.000000,-2.000000,4.000000,-26.000000,12.000000
1303373.519770,0.000000,0.000000,25.000000,32.000000,12.000000,8.000000,34.000000,-2.000000
1303373.519780,15.000000,3.000000,9.000000,-7.000000,-6.000000,-3.000000,-21.000000,-9.000000
1303373.542845,-5.000000,-3.000000,4.000000,3.000000,-7.000000,-2.000000,-17.000000,-15.000000
1303373.542855,8.000000,1.000000,-10.000000,-6.000000,-4.000000,3.000000,12.000000,8.000000
1303373.543414,3.000000,2.000000,2.000000,-22.000000,-6.000000,1.000000,16.000000,16.000000
1303373.543441,6.000000,1.000000,11.000000,39.000000,3.000000,-1.000000,-9.000000,-10.000000
1303373.564441,9.000000,-2.000000,-6.000000,35.000000,17.000000,2.000000,-3.000000,-5.000000
1303373.564469,0.000000,-4.000000,-9.000000,-49.000000,-21.000000,-6.000000,24.000000,6.000000
1303373.564913,12.000000,0.000000,-11.000000,18.000000,10.000000,1.000000,2.000000,8.000000
1303373.564921,19.000000,-10.000000,2.000000,-26.000000,-9.000000,2.000000,-2.000000,8.000000
1303373.566144,0.000000,-2.000000,0.000000,-10.000000,-9.000000,-4.000000,-5.000000,-4.000000
1303373.566152,9.000000,3.000000,5.000000,15.000000,0.000000,3.000000,13.000000,2.000000
1303373.567694,-17.000000,-5.000000,11.000000,6.000000,-10.000000,-1.000000,2.000000,18.000000
1303373.567703,2.000000,-1.000000,8.000000,10.000000,4.000000,-4.000000,-9.000000,-10.000000
1303373.579673,3.000000,5.000000,21.000000,52.000000,1.000000,-1.000000,-5.000000,-7.000000
1303373.579799,10.000000,-9.000000,6.000000,-39.000000,-4.000000,3.000000,4.000000,30.000000
1303373.580773,1.000000,6.000000,15.000000,18.000000,-8.000000,-4.000000,1.000000,-12.000000
1303373.580783,-6.000000,-6.000000,-15.000000,-28.000000,-2.000000,-4.000000,-23.000000,-24.000000
1303373.602250,-7.000000,-6.000000,16.000000,24.000000,-7.000000,6.000000,18.000000,-9.000000
1303373.602280,-17.000000,3.000000,10.000000,-14.000000,-11.000000,-5.000000,-11.000000,6.000000
1303373.624616,-1.000000,-2.000000,19.000000,48.000000,10.000000,2.000000,3.000000,-13.000000
1303373.624649,8.000000,5.000000,-8.000000,-13.000000,-5.000000,-1.000000,4.000000,13.000000
1303373.632570,-31.000000,-2.000000,-16.000000,9.000000,-6.000000,-9.000000,-15.000000,-12.000000
1303373.632627,-3.000000,-6.000000,3.000000,-10.000000,-9.000000,-5.000000,-25.000000,-21.000000
1303373.647184,-1.000000,4.000000,-1.000000,11.000000,0.000000,-3.000000,16.000000,1.000000
1303373.647196,-9.000000,0.000000,-15.000000,-31.000000,-5.000000,2.000000,19.000000,15.000000
1303373.654579,3.000000,6.000000,-9.000000,14.000000,11.000000,8.000000,2.000000,6.000000
1303373.654596,-7.000000,-2.000000,-53.000000,-40.000000,-7.000000,-5.000000,-65.000000,-26.000000
1303373.655367,-2.000000,-5.000000,29.000000,12.000000,1.000000,1.000000,44.000000,12.000000
1303373.655375,12.000000,-5.000000,-10.000000,-19.000000,2.000000,5.000000,10.000000,8.000000
1303373.656344,2.000000,8.000000,-5.000000,-12.000000,-8.000000,-7.000000,2.000000,14.000000
1303373.656353,-3.000000,1.000000,17.000000,-9.000000,-7.000000,5.000000,4.000000,5.000000
1303373.662637,-5.000000,8.000000,3.000000,25.000000,6.000000,2.000000,-17.000000,-15.000000
1303373.662646,-5.000000,-6.000000,-10.000000,-11.000000,-12.000000,-5.000000,-1.000000,-10.000000
1303373.677075,7.000000,-8.000000,24.000000,12.000000,0.000000,-7.000000,-2.000000,17.000000
1303373.677085,0.000000,-5.000000,17.000000,-12.000000,-2.000000,2.000000,12.000000,6.000000
1303373.700305,1.000000,-11.000000,7.000000,2.000000,0.000000,-4.000000,-10.000000,-12.000000
1303373.700334,-11.000000,-8.000000,0.000000,-11.000000,-1.000000,-2.000000,-14.000000,1.000000
1303373.700874,6.000000,-9.000000,-10.000000,2.000000,1.000000,7.000000,21.000000,-12.000000
1303373.700882,-2.000000,3.000000,-18.000000,-10.000000,1.000000,-4.000000,-37.000000,-7.000000
1303373.714800,3.000000,-4.000000,-21.000000,-44.000000,-12.000000,-3.000000,31.000000,7.000000
1303373.714812,4.000000,3.000000,7.000000,10.000000,6.000000,7.000000,5.000000,-4.000000
1303373.722040,0.000000,-9.000000,-11.000000,-29.000000,-16.000000,-10.000000,-6.000000,5.000000
1303373.722051,3.000000,4.000000,21.000000,-45.000000,-15.000000,0.000000,-3.000000,9.000000
1303373.752117,-9.000000,0.000000,15.000000,65.000000,29.000000,2.000000,-29.000000,-18.000000
1303373.752148,-4.000000,0.000000,-62.000000,-50.000000,-17.000000,-1.000000,-4.000000,-24.000000
1303373.759594,-8.000000,5.000000,5.000000,-6.000000,1.000000,3.000000,16.000000,17.000000
1303373.759614,21.000000,-3.000000,27.000000,61.000000,15.000000,0.000000,-5.000000,9.000000
1303373.782212,-12.000000,-4.000000,6.000000,-12.000000,-4.000000,-1.000000,-9.000000,2.000000
1303373.782223,-1.000000,8.000000,13.000000,-21.000000,-8.000000,-1.000000,-14.000000,-19.000000
1303373.789687,5.000000,-3.000000,-17.000000,14.000000,-1.000000,2.000000,7.000000,15.000000
1303373.789697,2.000000,-1.000000,-10.000000,-22.000000,-4.000000,-12.000000,10.000000,-3.000000
1303373.819540,-12.000000,-3.000000,-21.000000,11.000000,5.000000,3.000000,20.000000,-14.000000
1303373.819550,2.000000,1.000000,26.000000,-20.000000,-5.000000,-2.000000,-11.000000,-2.000000
1303373.834801,2.000000,0.000000,41.000000,10.000000,12.000000,-3.000000,2.000000,5.000000
1303373.834815,16.000000,-2.000000,12.000000,-5.000000,-1.000000,-4.000000,-4.000000,0.000000
1303373.857257,-2.000000,-1.000000,-37.000000,27.000000,12.000000,10.000000,46.000000,15.000000
1303373.857276,1.000000,6.000000,-21.000000,-50.000000,-12.000000,-4.000000,11.000000,35.000000
1303373.894595,10.000000,-1.000000,39.000000,-2.000000,-1.000000,-7.000000,-19.000000,-15.000000
1303373.894608,-1.000000,-14.000000,-17.000000,-4.000000,0.000000,3.000000,-5.000000,-5.000000
1303373.901881,6.000000,-4.000000,9.000000,-24.000000,-8.000000,-6.000000,-16.000000,-16.000000
1303373.901891,3.000000,0.000000,6.000000,5.000000,3.000000,-6.000000,12.000000,2.000000
1303373.902302,5.000000,-3.000000,8.000000,9.000000,-3.000000,9.000000,37.000000,9.000000
1303373.902311,-2.000000,-1.000000,-6.000000,-4.000000,4.000000,-4.000000,-11.000000,-4.000000
1303373.902932,-1.000000,-6.000000,2.000000,1.000000,-7.000000,2.000000,12.000000,7.000000
1303373.902946,14.000000,6.000000,5.000000,-23.000000,3.000000,2.000000,0.000000,-9.000000
1303373.904355,7.000000,-2.000000,17.000000,72.000000,13.000000,3.000000,3.000000,-4.000000
1303373.904364,-16.000000,1.000000,-4.000000,-9.000000,6.000000,-4.000000,-10.000000,-1.000000
1303373.904918,-15.000000,-7.000000,12.000000,-13.000000,0.000000,1.000000,7.000000,-9.000000
1303373.904927,2.000000,1.000000,-5.000000,-10.000000,2.000000,-5.000000,-12.000000,-3.000000
1303373.909448,-14.000000,9.000000,-15.000000,-20.000000,-7.000000,3.000000,9.000000,10.000000
1303373.909458,-8.000000,3.000000,-13.000000,-25.000000,-8.000000,0.000000,-12.000000,-12.000000
1303373.932074,15.000000,-3.000000,28.000000,43.000000,15.000000,5.000000,25.000000,26.000000
1303373.932087,-4.000000,-7.000000,1.000000,-25.000000,3.000000,8.000000,-23.000000,-10.000000
1303373.932775,4.000000,-4.000000,24.000000,5.000000,1.000000,-1.000000,11.000000,4.000000
1303373.932784,9.000000,-1.000000,53.000000,44.000000,19.000000,4.000000,12.000000,33.000000
1303373.954573,8.000000,-6.000000,8.000000,-14.000000,-3.000000,0.000000,3.000000,2.000000
1303373.954586,-2.000000,-1.000000,-3.000000,2.000000,-13.000000,1.000000,-9.000000,-8.000000
1303373.978293,-3.000000,0.000000,-11.000000,-11.000000,-6.000000,-5.000000,-14.000000,-16.000000
1303373.978325,13.000000,-4.000000,22.000000,4.000000,-3.000000,-5.000000,-10.000000,-5.000000
1303374.000926,-7.000000,-5.000000,36.000000,-10.000000,-7.000000,-1.000000,-19.000000,-8.000000
1303374.001018,-9.000000,0.000000,-1.000000,10.000000,-6.000000,-1.000000,22.000000,5.000000
1303374.015532,11.000000,-3.000000,13.000000,41.000000,10.000000,5.000000,10.000000,15.000000
1303374.015559,-10.000000,0.000000,-4.000000,30.000000,7.000000,6.000000,8.000000,-18.000000
1303374.017681,-17.000000,-1.000000,-48.000000,18.000000,-5.000000,-1.000000,-10.000000,-3.000000
1303374.017723,19.000000,-3.000000,-30.000000,-22.000000,-3.000000,0.000000,5.000000,21.000000
1303374.018739,-6.000000,-2.000000,3.000000,-13.000000,-1.000000,0.000000,-3.000000,-2.000000
1303374.018772,1.000000,-4.000000,30.000000,4.000000,-3.000000,-4.000000,-10.000000,-10.000000
1303374.019817,12.000000,-3.000000,4.000000,-56.000000,-7.000000,3.000000,6.000000,13.000000
1303374.019844,-13.000000,7.000000,17.000000,122.000000,30.000000,2.000000,6.000000,-18.000000
1303374.039745,15.000000,2.000000,44.000000,-24.000000,-17.000000,-3.000000,17.000000,43.000000
1303374.039793,-13.000000,3.000000,-15.000000,6.000000,-2.000000,-6.000000,-41.000000,-14.000000
1303374.040507,-10.000000,-2.000000,-8.000000,-5.000000,-10.000000,-6.000000,46.000000,5.000000
1303374.040534,10.000000,-2.000000,26.000000,-23.000000,-2.000000,4.000000,-26.000000,-5.000000
1303374.045528,12.000000,3.000000,1.000000,8.000000,19.000000,5.000000,-9.000000,-10.000000
1303374.045557,-12.000000,-5.000000,13.000000,34.000000,3.000000,5.000000,-13.000000,-9.000000
1303374.053116,4.000000,1.000000,9.000000,-7.000000,-1.000000,-5.000000,12.000000,3.000000
1303374.053145,-1.000000,4.000000,26.000000,-20.000000,-4.000000,-7.000000,-8.000000,-7.000000
1303374.076717,-1.000000,-1.000000,-22.000000,-24.000000,-9.000000,-3.000000,-11.000000,-9.000000
1303374.076839,5.000000,-3.000000,-9.000000,17.000000,3.000000,-1.000000,-13.000000,-3.000000
1303374.098326,6.000000,0.000000,28.000000,-14.000000,-8.000000,1.000000,7.000000,-4.000000
1303374.098380,0.000000,-8.000000,-5.000000,-84.000000,-20.000000,-18.000000,-9.000000,-9.000000
1303374.120377,3.000000,2.000000,-14.000000,126.000000,28.000000,8.000000,15.000000,16.000000
1303374.120407,11.000000,-8.000000,6.000000,-41.000000,-15.000000,-3.000000,-4.000000,9.000000
1303374.135848,-10.000000,-14.000000,-11.000000,35.000000,-1.000000,-14.000000,-41.000000,-38.000000
1303374.136252,1.000000,-11.000000,10.000000,80.000000,20.000000,11.000000,40.000000,26.000000
1303374.137135,22.000000,-8.000000,9.000000,-24.000000,-7.000000,-1.000000,-25.000000,5.000000
1303374.137324,-14.000000,2.000000,7.000000,-7.000000,-6.000000,-9.000000,12.000000,9.000000
1303374.137595,2.000000,-7.000000,11.000000,11.000000,-5.000000,-7.000000,-8.000000,6.000000
1303374.137631,6.000000,-8.000000,-3.000000,-26.000000,-4.000000,-9.000000,-15.000000,-9.000000
1303374.138876,4.000000,-1.000000,16.000000,-1.000000,-10.000000,-7.000000,3.000000,-6.000000
1303374.138893,-19.000000,5.000000,-11.000000,48.000000,10.000000,8.000000,4.000000,-3.000000
1303374.138973,3.000000,2.000000,-39.000000,-60.000000,-10.000000,-4.000000,-1.000000,2.000000
1303374.138981,8.000000,-3.000000,6.000000,19.000000,-1.000000,1.000000,9.000000,-1.000000
1303374.150093,-21.000000,0.000000,-4.000000,10.000000,11.000000,2.000000,2.000000,-1.000000
1303374.150124,3.000000,7.000000,-1.000000,-8.000000,2.000000,1.000000,-10.000000,-6.000000
1303374.157367,6.000000,3.000000,-19.000000,45.000000,12.000000,-3.000000,-2.000000,1.000000
1303374.157390,-2.000000,-1.000000,-1.000000,-27.000000,-7.000000,4.000000,1.000000,6.000000
1303374.173095,-5.000000,-6.000000,12.000000,-19.000000,-4.000000,-2.000000,-13.000000,-18.000000
1303374.173164,-23.000000,5.000000,-14.000000,-8.000000,-10.000000,-9.000000,-31.000000,-18.000000
1303374.180023,6.000000,3.000000,-9.000000,-40.000000,-12.000000,-4.000000,43.000000,23.000000
1303374.180040,13.000000,-3.000000,-26.000000,-26.000000,-14.000000,-8.000000,3.000000,38.000000
1303374.194917,-2.000000,-1.000000,8.000000,-12.000000,-1.000000,-8.000000,-20.000000,-23.000000
1303374.194935,-13.000000,1.000000,-53.000000,-37.000000,-9.000000,-12.000000,-18.000000,-21.000000
1303374.210075,-2.000000,2.000000,-12.000000,8.000000,-4.000000,-7.000000,-13.000000,-12.000000
1303374.210094,4.000000,0.000000,7.000000,-23.000000,-14.000000,-6.000000,-1.000000,-4.000000
1303374.232227,6.000000,3.000000,6.000000,5.000000,9.000000,1.000000,3.000000,0.000000
1303374.232256,2.000000,-5.000000,31.000000,-35.000000,-5.000000,3.000000,2.000000,-1.000000
1303374.232514,-13.000000,-7.000000,-6.000000,33.000000,1.000000,-2.000000,-9.000000,-2.000000
1303374.232540,3.000000,-6.000000,-13.000000,-45.000000,-11.000000,-6.000000,3.000000,9.000000
1303374.233628,-4.000000,2.000000,-1.000000,79.000000,15.000000,5.000000,1.000000,-2.000000
1303374.233656,-2.000000,-10.000000,14.000000,-20.000000,0.000000,3.000000,0.000000,-3.000000
1303374.234452,-11.000000,2.000000,1.000000,-17.000000,-13.000000,-5.000000,0.000000,2.000000
1303374.234479,-6.000000,0.000000,-20.000000,-6.000000,7.000000,3.000000,-29.000000,-21.000000
1303374.255045,7.000000,1.000000,-1.000000,-32.000000,3.000000,5.000000,36.000000,8.000000
1303374.255071,-9.000000,5.000000,-7.000000,-3.000000,-3.000000,1.000000,34.000000,57.000000
1303374.255703,-6.000000,-4.000000,20.000000,-49.000000,-12.000000,-6.000000,-12.000000,-18.000000
1303374.255711,3.000000,2.000000,19.000000,48.000000,18.000000,6.000000,-23.000000,-20.000000
1303374.270216,5.000000,-2.000000,-21.000000,-22.000000,-3.000000,6.000000,0.000000,6.000000
1303374.270226,10.000000,-1.000000,9.000000,17.000000,12.000000,2.000000,13.000000,8.000000
1303374.277234,-10.000000,-8.000000,15.000000,9.000000,-9.000000,-5.000000,3.000000,9.000000
1303374.277244,-3.000000,1.000000,12.000000,-23.000000,-8.000000,-1.000000,-13.000000,-14.000000
1303374.307284,-12.000000,-9.000000,-17.000000,8.000000,-9.000000,0.000000,3.000000,-14.000000
1303374.307296,2.000000,-9.000000,3.000000,-30.000000,-3.000000,1.000000,2.000000,-4.000000
1303374.314777,-9.000000,-8.000000,-20.000000,24.000000,15.000000,1.000000,-10.000000,-9.000000
1303374.314802,-1.000000,5.000000,-2.000000,18.000000,-6.000000,-4.000000,-3.000000,-5.000000
1303374.329636,7.000000,-10.000000,14.000000,83.000000,22.000000,1.000000,6.000000,2.000000
1303374.329648,12.000000,-1.000000,-4.000000,1.000000,0.000000,-4.000000,7.000000,6.000000
1303374.336873,-11.000000,-3.000000,-5.000000,3.000000,3.000000,-1.000000,-8.000000,-3.000000
1303374.336892,-10.000000,5.000000,-13.000000,-41.000000,-18.000000,-8.000000,-1.000000,-3.000000
1303374.374897,-19.000000,-7.000000,-23.000000,13.000000,-2.000000,-12.000000,-30.000000,-34.000000
1303374.374907,9.000000,-5.000000,-3.000000,45.000000,9.000000,17.000000,53.000000,24.000000
1303374.397034,-4.000000,2.000000,-8.000000,-42.000000,-11.000000,-3.000000,12.000000,19.000000
1303374.397063,37.000000,-2.000000,-15.000000,-26.000000,-28.000000,-9.000000,-22.000000,2.000000
1303374.427206,-19.000000,-4.000000,-15.000000,1.000000,13.000000,9.000000,9.000000,-16.000000
1303374.427224,15.000000,3.000000,17.000000,-8.000000,-8.000000,-5.000000,12.000000,23.000000
1303374.434507,2.000000,-2.000000,-45.000000,5.000000,4.000000,-2.000000,-6.000000,-2.000000
1303374.434516,-14.000000,1.000000,-16.000000,-29.000000,-7.000000,-11.000000,-28.000000,-28.000000
1303374.457219,-3.000000,0.000000,4.000000,-15.000000,-4.000000,-4.000000,-16.000000,-13.000000
1303374.457232,-5.000000,-3.000000,17.000000,7.000000,1.000000,3.000000,15.000000,0.000000
1303374.464811,-3.000000,-3.000000,18.000000,-23.000000,-6.000000,-4.000000,-7.000000,-5.000000
1303374.464826,0.000000,-12.000000,-28.000000,28.000000,4.000000,1.000000,-7.000000,-9.000000
1303374.472083,6.000000,3.000000,-23.000000,-5.000000,-5.000000,8.000000,13.000000,9.000000
1303374.472093,-9.000000,-4.000000,9.000000,-19.000000,-6.000000,-9.000000,-28.000000,-27.000000
1303374.486998,6.000000,-8.000000,-11.000000,-12.000000,-4.000000,1.000000,19.000000,29.000000
1303374.487008,-16.000000,-14.000000,-20.000000,-26.000000,-4.000000,3.000000,36.000000,24.000000
1303374.509669,7.000000,1.000000,40.000000,6.000000,11.000000,1.000000,-9.000000,-15.000000
1303374.509680,-7.000000,5.000000,-1.000000,5.000000,0.000000,-3.000000,20.000000,11.000000
1303374.510176,1.000000,-4.000000,-7.000000,2.000000,-6.000000,0.000000,8.000000,5.000000
1303374.510195,-3.000000,-1.000000,13.000000,-3.000000,-1.000000,-1.000000,-3.000000,-3.000000
1303374.510657,3.000000,-13.000000,3.000000,-47.000000,-14.000000,-4.000000,-6.000000,-2.000000
1303374.510673,2.000000,1.000000,37.000000,83.000000,17.000000,4.000000,-11.000000,-4.000000
1303374.511956,-14.000000,8.000000,-43.000000,-35.000000,-6.000000,6.000000,8.000000,2.000000
1303374.511984,4.000000,0.000000,-31.000000,7.000000,-7.000000,0.000000,2.000000,6.000000
1303374.532040,0.000000,4.000000,-21.000000,-8.000000,1.000000,2.000000,-3.000000,-12.000000
1303374.532070,-1.000000,2.000000,1.000000,23.000000,9.000000,6.000000,15.000000,23.000000
1303374.554803,11.000000,5.000000,-7.000000,-35.000000,-6.000000,-2.000000,22.000000,8.000000
1303374.554815,-1.000000,5.000000,-14.000000,-22.000000,-13.000000,0.000000,-9.000000,-15.000000
1303374.569736,-16.000000,0.000000,-13.000000,-20.000000,-5.000000,-6.000000,-19.000000,-21.000000
1303374.569747,3.000000,0.000000,-16.000000,25.000000,2.000000,0.000000,-4.000000,12.000000
1303374.592216,-3.000000,-5.000000,20.000000,-8.000000,-6.000000,5.000000,4.000000,6.000000
1303374.592226,-1.000000,5.000000,-50.000000,3.000000,5.000000,-2.000000,-4.000000,-5.000000
1303374.614450,-1.000000,-1.000000,-10.000000,-9.000000,-2.000000,-3.000000,-11.000000,-9.000000
1303374.614468,-10.000000,-3.000000,29.000000,-9.000000,-6.000000,-2.000000,-26.000000,-27.000000
1303374.615410,-7.000000,-1.000000,25.000000,21.000000,4.000000,-11.000000,22.000000,4.000000
1303374.615420,36.000000,-4.000000,44.000000,-26.000000,-14.000000,1.000000,26.000000,35.000000
1303374.616090,-17.000000,-1.000000,-21.000000,-15.000000,-4.000000,-6.000000,-13.000000,-11.000000
1303374.616140,0.000000,-4.000000,18.000000,-22.000000,-5.000000,-3.000000,-7.000000,-10.000000
1303374.616705,-7.000000,-6.000000,-5.000000,28.000000,0.000000,-2.000000,-8.000000,-9.000000
1303374.616722,-7.000000,-2.000000,-10.000000,-42.000000,5.000000,3.000000,-8.000000,-14.000000
1303374.618197,-6.000000,1.000000,3.000000,25.000000,-3.000000,1.000000,5.000000,4.000000
1303374.618206,8.000000,-1.000000,22.000000,-28.000000,-7.000000,-7.000000,-10.000000,-6.000000
1303374.629542,2.000000,-5.000000,29.000000,21.000000,-10.000000,11.000000,18.000000,2.000000
1303374.629553,18.000000,5.000000,20.000000,-21.000000,-15.000000,-2.000000,24.000000,49.000000
1303374.652075,-6.000000,-1.000000,-28.000000,-38.000000,-13.000000,-14.000000,-7.000000,-6.000000
1303374.652087,-5.000000,-1.000000,19.000000,-8.000000,-3.000000,-2.000000,-15.000000,-14.000000
1303374.666945,-4.000000,2.000000,7.000000,4.000000,-1.000000,0.000000,-9.000000,-10.000000
1303374.666956,1.000000,0.000000,-16.000000,4.000000,-6.000000,1.000000,-4.000000,-7.000000
1303374.674486,-2.000000,0.000000,11.000000,-28.000000,-6.000000,-12.000000,-25.000000,-8.000000
1303374.674497,2.000000,-5.000000,18.000000,127.000000,28.000000,8.000000,15.000000,4.000000
1303374.712249,6.000000,-2.000000,35.000000,-11.000000,-6.000000,10.000000,13.000000,19.000000
1303374.712268,-1.000000,-1.000000,7.000000,-7.000000,-1.000000,-7.000000,-9.000000,-15.000000
1303374.726987,1.000000,-8.000000,4.000000,4.000000,3.000000,3.000000,13.000000,19.000000
1303374.727003,-3.000000,3.000000,8.000000,-38.000000,-14.000000,-10.000000,-19.000000,-10.000000
1303374.728040,-2.000000,-3.000000,6.000000,45.000000,26.000000,10.000000,-33.000000,-29.000000
1303374.728066,-25.000000,2.000000,5.000000,30.000000,-16.000000,-5.000000,47.000000,12.000000
1303374.728678,3.000000,4.000000,8.000000,-22.000000,0.000000,-3.000000,-8.000000,13.000000
1303374.728704,18.000000,1.000000,-6.000000,-28.000000,-1.000000,-1.000000,-17.000000,7.000000
1303374.729897,19.000000,3.000000,-25.000000,5.000000,0.000000,-1.000000,29.000000,-12.000000
1303374.729906,-51.000000,-3.000000,-26.000000,-71.000000,-25.000000,-13.000000,-25.000000,-19.000000
1303374.730894,7.000000,-3.000000,3.000000,-14.000000,-7.000000,-4.000000,-11.000000,2.000000
1303374.730902,-8.000000,-1.000000,-43.000000,-28.000000,-13.000000,-3.000000,-7.000000,-11.000000
1303374.734398,4.000000,-5.000000,43.000000,11.000000,-7.000000,-5.000000,-5.000000,-3.000000
1303374.734426,-10.000000,2.000000,-59.000000,-34.000000,-4.000000,-1.000000,-6.000000,-8.000000
1303374.749516,-13.000000,-1.000000,-3.000000,31.000000,-9.000000,-3.000000,-8.000000,-13.000000
1303374.749533,16.000000,2.000000,7.000000,38.000000,5.000000,11.000000,-4.000000,2.000000
1303374.764443,-3.000000,-5.000000,4.000000,-9.000000,-1.000000,-2.000000,13.000000,15.000000
1303374.764473,10.000000,6.000000,9.000000,-8.000000,-3.000000,1.000000,11.000000,8.000000
1303374.779714,11.000000,-8.000000,21.000000,11.000000,-3.000000,-4.000000,-16.000000,-19.000000
1303374.779725,-43.000000,-4.000000,1.000000,-25.000000,-21.000000,-7.000000,-3.000000,-6.000000
1303374.787242,13.000000,3.000000,-14.000000,5.000000,0.000000,-3.000000,22.000000,2.000000
1303374.787253,-7.000000,-3.000000,8.000000,12.000000,-1.000000,-4.000000,6.000000,19.000000
1303374.824542,18.000000,0.000000,6.000000,-16.000000,-5.000000,3.000000,16.000000,25.000000
1303374.824552,-2.000000,0.000000,-17.000000,-30.000000,-16.000000,-7.000000,-1.000000,-6.000000
1303374.832245,-16.000000,-7.000000,-31.000000,-2.000000,1.000000,1.000000,-18.000000,-17.000000
1303374.832256,-5.000000,3.000000,-41.000000,-37.000000,-4.000000,-1.000000,-25.000000,-26.000000
1303374.847433,-5.000000,-4.000000,25.000000,54.000000,5.000000,-7.000000,14.000000,3.000000
1303374.847462,2.000000,3.000000,0.000000,84.000000,53.000000,21.000000,4.000000,8.000000
1303374.847947,4.000000,-4.000000,5.000000,-37.000000,-22.000000,-9.000000,-1.000000,1.000000
1303374.848004,5.000000,1.000000,-13.000000,-22.000000,-7.000000,-6.000000,-6.000000,-7.000000
1303374.849274,-12.000000,4.000000,-20.000000,-7.000000,0.000000,-6.000000,-11.000000,-10.000000
1303374.849283,13.000000,-7.000000,-1.000000,4.000000,4.000000,2.000000,-7.000000,-5.000000
1303374.850923,-27.000000,3.000000,32.000000,9.000000,2.000000,0.000000,-10.000000,2.000000
1303374.850942,-14.000000,-6.000000,11.000000,-17.000000,-9.000000,-8.000000,5.000000,-17.000000
1303374.869690,0.000000,-2.000000,-27.000000,-58.000000,-20.000000,-7.000000,4.000000,-9.000000
1303374.869702,9.000000,-1.000000,43.000000,92.000000,58.000000,28.000000,14.000000,9.000000
1303374.870775,23.000000,3.000000,12.000000,10.000000,2.000000,-7.000000,23.000000,52.000000
1303374.870783,6.000000,1.000000,-23.000000,4.000000,-5.000000,0.000000,-6.000000,-19.000000
1303374.891914,-24.000000,-3.000000,-37.000000,-16.000000,-7.000000,-7.000000,-17.000000,-15.000000
1303374.891924,-10.000000,5.000000,-15.000000,-8.000000,-4.000000,-2.000000,-17.000000,-17.000000
1303374.929681,0.000000,-6.000000,-17.000000,-46.000000,-12.000000,0.000000,-8.000000,-8.000000
1303374.929695,-9.000000,-6.000000,-13.000000,70.000000,-2.000000,-11.000000,-6.000000,-2.000000
1303374.944466,-7.000000,3.000000,10.000000,-78.000000,-19.000000,3.000000,-1.000000,-1.000000
1303374.944478,-6.000000,3.000000,-24.000000,6.000000,2.000000,2.000000,6.000000,-5.000000
1303374.945540,12.000000,-4.000000,46.000000,40.000000,11.000000,-4.000000,-2.000000,3.000000
1303374.945552,4.000000,-10.000000,-16.000000,-14.000000,-3.000000,1.000000,4.000000,5.000000
1303374.946144,3.000000,-2.000000,-2.000000,-4.000000,-10.000000,-5.000000,-7.000000,-6.000000
1303374.946172,-12.000000,2.000000,-8.000000,-4.000000,-11.000000,2.000000,-10.000000,-15.000000
1303374.947474,-39.000000,2.000000,-51.000000,-53.000000,-11.000000,-16.000000,-32.000000,-19.000000
1303374.947490,48.000000,-3.000000,-6.000000,68.000000,8.000000,15.000000,40.000000,4.000000
1303374.948314,-8.000000,9.000000,-11.000000,-25.000000,-11.000000,-4.000000,-10.000000,0.000000
1303374.948333,-8.000000,-4.000000,-19.000000,-12.000000,-6.000000,-11.000000,-15.000000,-14.000000
1303374.967200,-5.000000,1.000000,9.000000,9.000000,-1.000000,-2.000000,-15.000000,-22.000000
1303374.967211,-15.000000,-2.000000,-20.000000,-61.000000,-10.000000,4.000000,-1.000000,-11.000000
1303374.989960,10.000000,-9.000000,36.000000,54.000000,18.000000,7.000000,10.000000,7.000000
1303374.990002,9.000000,5.000000,-4.000000,-9.000000,-4.000000,-4.000000,0.000000,7.000000
1303374.990773,-1.000000,5.000000,-30.000000,-16.000000,-2.000000,0.000000,1.000000,1.000000
1303374.990792,-6.000000,1.000000,-12.000000,-2.000000,-9.000000,-3.000000,0.000000,-8.000000
1303374.992162,-1.000000,-3.000000,27.000000,-8.000000,-3.000000,-3.000000,-1.000000,-5.000000
1303374.992172,13.000000,-7.000000,3.000000,60.000000,16.000000,-2.000000,-2.000000,-5.000000
1303375.004465,-15.000000,-4.000000,5.000000,-25.000000,-3.000000,-5.000000,-6.000000,0.000000
1303375.004494,19.000000,0.000000,11.000000,21.000000,-13.000000,-14.000000,-30.000000,-9.000000
1303375.027206,24.000000,-2.000000,8.000000,-17.000000,9.000000,1.000000,4.000000,12.000000
1303375.027232,-5.000000,8.000000,5.000000,-13.000000,2.000000,-2.000000,14.000000,0.000000
1303375.042017,-30.000000,7.000000,-18.000000,-79.000000,-17.000000,-3.000000,-11.000000,-18.000000
1303375.042038,-9.000000,-1.000000,4.000000,108.000000,49.000000,25.000000,14.000000,10.000000
1303375.064757,6.000000,-5.000000,12.000000,-52.000000,-26.000000,-14.000000,-22.000000,-2.000000
1303375.064768,-15.000000,-1.000000,-22.000000,6.000000,13.000000,8.000000,12.000000,-4.000000
1303375.079608,3.000000,-3.000000,-6.000000,-11.000000,2.000000,-7.000000,-24.000000,-18.000000
1303375.079618,3.000000,-3.000000,-13.000000,-16.000000,-8.000000,-1.000000,16.000000,22.000000
1303375.109721,-12.000000,-9.000000,-6.000000,-34.000000,-5.000000,-3.000000,6.000000,-1.000000
1303375.109732,5.000000,4.000000,10.000000,11.000000,7.000000,-1.000000,1.000000,-4.000000
1303375.124574,6.000000,7.000000,13.000000,10.000000,1.000000,0.000000,-2.000000,-2.000000
1303375.124593,7.000000,5.000000,-11.000000,-3.000000,8.000000,6.000000,-2.000000,-6.000000
1303375.162301,-21.000000,-6.000000,-36.000000,-13.000000,1.000000,1.000000,0.000000,-14.000000
1303375.162320,23.000000,3.000000,36.000000,18.000000,11.000000,-8.000000,8.000000,6.000000
1303375.169465,-8.000000,3.000000,-3.000000,-12.000000,4.000000,7.000000,15.000000,33.000000
1303375.169475,-10.000000,0.000000,-16.000000,-12.000000,-5.000000,-7.000000,-3.000000,-16.000000
1303375.184360,-11.000000,-2.000000,-2.000000,-23.000000,-12.000000,-7.000000,0.000000,-1.000000
1303375.184374,-8.000000,-1.000000,-5.000000,-10.000000,5.000000,-6.000000,-22.000000,-19.000000
1303375.185347,-3.000000,-1.000000,-4.000000,28.000000,3.000000,2.000000,3.000000,0.000000
1303375.185355,-1.000000,-9.000000,19.000000,-41.000000,-6.000000,-8.000000,-15.000000,-10.000000
1303375.185962,-3.000000,-4.000000,-8.000000,-8.000000,-2.000000,-4.000000,2.000000,-3.000000
1303375.185970,-3.000000,12.000000,24.000000,14.000000,2.000000,1.000000,12.000000,30.000000
1303375.187259,-2.000000,-3.000000,-2.000000,-17.000000,-10.000000,-4.000000,-27.000000,-26.000000
1303375.187267,-9.000000,3.000000,-14.000000,-28.000000,-1.000000,-5.000000,-21.000000,-22.000000
1303375.188170,3.000000,-13.000000,7.000000,19.000000,2.000000,2.000000,1.000000,-1.000000
1303375.188178,-17.000000,1.000000,11.000000,-27.000000,-1.000000,1.000000,-5.000000,-7.000000
1303375.207035,7.000000,-2.000000,-14.000000,0.000000,-2.000000,2.000000,-3.000000,2.000000
1303375.207046,7.000000,0.000000,5.000000,-5.000000,-2.000000,2.000000,-3.000000,1.000000
1303375.208216,-21.000000,-1.000000,-30.000000,-42.000000,-8.000000,-3.000000,13.000000,1.000000
1303375.208225,-4.000000,1.000000,-42.000000,-14.000000,16.000000,2.000000,-11.000000,-3.000000
1303375.221828,-4.000000,5.000000,-5.000000,-36.000000,-7.000000,-6.000000,8.000000,-6.000000
1303375.221850,-2.000000,1.000000,-9.000000,-58.000000,-17.000000,-6.000000,12.000000,-5.000000
1303375.229596,3.000000,-1.000000,-1.000000,-33.000000,-4.000000,-3.000000,9.000000,22.000000
1303375.229619,4.000000,-5.000000,-8.000000,35.000000,6.000000,-4.000000,-7.000000,-5.000000
1303375.244801,9.000000,12.000000,-32.000000,-28.000000,-7.000000,-4.000000,0.000000,4.000000
1303375.244813,-16.000000,-3.000000,17.000000,-11.000000,-5.000000,-5.000000,-40.000000,-36.000000
1303375.274447,22.000000,-5.000000,-3.000000,-52.000000,-17.000000,-3.000000,47.000000,40.000000
1303375.274457,3.000000,-2.000000,-1.000000,22.000000,-3.000000,-1.000000,-46.000000,-17.000000
1303375.281873,-13.000000,-7.000000,-35.000000,3.000000,-2.000000,-8.000000,28.000000,-19.000000
1303375.281882,-41.000000,-6.000000,-32.000000,-39.000000,-18.000000,-1.000000,7.000000,18.000000
1303375.290012,7.000000,4.000000,0.000000,-10.000000,-4.000000,1.000000,4.000000,10.000000
1303375.290021,0.000000,-5.000000,-2.000000,10.000000,0.000000,-3.000000,-14.000000,-14.000000
1303375.290790,-4.000000,1.000000,-7.000000,-4.000000,0.000000,-3.000000,-8.000000,-10.000000
1303375.290798,5.000000,7.000000,11.000000,2.000000,-2.000000,-1.000000,-6.000000,-2.000000
1303375.292381,-9.000000,-2.000000,-27.000000,5.000000,-4.000000,-4.000000,-3.000000,-9.000000
1303375.292391,11.000000,-8.000000,26.000000,-33.000000,-10.000000,-4.000000,5.000000,7.000000
1303375.304385,-25.000000,-1.000000,-9.000000,0.000000,4.000000,1.000000,-3.000000,-5.000000
1303375.304398,3.000000,-2.000000,21.000000,31.000000,-1.000000,-4.000000,-1.000000,1.000000
1303375.305780,-1.000000,4.000000,1.000000,-21.000000,-3.000000,1.000000,-8.000000,-7.000000
1303375.305791,-1.000000,-4.000000,-2.000000,-22.000000,-6.000000,0.000000,-4.000000,1.000000
1303375.319451,9.000000,2.000000,2.000000,-6.000000,-5.000000,3.000000,17.000000,7.000000
1303375.319469,-13.000000,2.000000,-20.000000,0.000000,-13.000000,-13.000000,-34.000000,-15.000000
1303375.326904,15.000000,0.000000,36.000000,28.000000,5.000000,3.000000,36.000000,16.000000
1303375.326914,23.000000,1.000000,-81.000000,-36.000000,-2.000000,5.000000,0.000000,-2.000000
1303375.342017,-11.000000,-1.000000,-12.000000,-45.000000,-18.000000,-9.000000,4.000000,5.000000
1303375.342029,-16.000000,-5.000000,-4.000000,22.000000,10.000000,6.000000,-5.000000,3.000000
1303375.364486,19.000000,5.000000,11.000000,13.000000,-2.000000,-3.000000,-13.000000,-4.000000
1303375.364497,4.000000,5.000000,20.000000,3.000000,-6.000000,-4.000000,6.000000,-2.000000
1303375.387321,3.000000,6.000000,-15.000000,-5.000000,1.000000,4.000000,2.000000,-2.000000
1303375.387334,-8.000000,3.000000,-6.000000,-3.000000,0.000000,-2.000000,-18.000000,-13.000000
1303375.425249,-10.000000,3.000000,22.000000,-27.000000,-8.000000,-7.000000,-18.000000,-13.000000
1303375.425259,6.000000,-3.000000,-59.000000,10.000000,-1.000000,-4.000000,-3.000000,-3.000000
1303375.425323,-3.000000,-3.000000,-19.000000,0.000000,-2.000000,3.000000,29.000000,33.000000
1303375.425340,9.000000,-5.000000,12.000000,-2.000000,1.000000,-5.000000,-15.000000,-16.000000
1303375.426180,1.000000,-4.000000,-11.000000,-10.000000,-2.000000,1.000000,10.000000,6.000000
1303375.426187,-3.000000,5.000000,-16.000000,-25.000000,-10.000000,-3.000000,-9.000000,-10.000000
1303375.426874,4.000000,4.000000,7.000000,28.000000,5.000000,-7.000000,-19.000000,-9.000000
1303375.426882,-11.000000,0.000000,15.000000,-14.000000,1.000000,-4.000000,-12.000000,4.000000
1303375.428733,7.000000,-1.000000,-46.000000,8.000000,-3.000000,-15.000000,4.000000,-5.000000
1303375.428744,-5.000000,-2.000000,1.000000,5.000000,5.000000,2.000000,6.000000,17.000000
1303375.439940,1.000000,-7.000000,17.000000,4.000000,3.000000,-8.000000,-8.000000,-9.000000
1303375.439975,6.000000,-4.000000,3.000000,27.000000,16.000000,8.000000,-20.000000,-13.000000
1303375.446899,9.000000,-5.000000,19.000000,1.000000,0.000000,0.000000,13.000000,2.000000
1303375.446909,12.000000,-3.000000,31.000000,-52.000000,-17.000000,-8.000000,10.000000,9.000000
1303375.461798,-3.000000,-3.000000,4.000000,20.000000,4.000000,7.000000,-2.000000,3.000000
1303375.461808,-3.000000,0.000000,-27.000000,-14.000000,-14.000000,-3.000000,13.000000,-17.000000
1303375.484712,-9.000000,-9.000000,-18.000000,-36.000000,-4.000000,-1.000000,-1.000000,14.000000
1303375.484722,6.000000,-6.000000,27.000000,27.000000,14.000000,1.000000,12.000000,10.000000
1303375.499629,-11.000000,-1.000000,22.000000,8.000000,5.000000,6.000000,-5.000000,3.000000
1303375.499649,-8.000000,-5.000000,-21.000000,-38.000000,-8.000000,-1.000000,-6.000000,-12.000000
1303375.522343,0.000000,-6.000000,-11.000000,36.000000,15.000000,-3.000000,2.000000,5.000000
1303375.522354,-7.000000,3.000000,-19.000000,-7.000000,5.000000,1.000000,-16.000000,-15.000000
1303375.537444,-11.000000,2.000000,57.000000,43.000000,8.000000,-2.000000,-25.000000,-26.000000
1303375.537455,21.000000,6.000000,-49.000000,-28.000000,-13.000000,8.000000,35.000000,21.000000
1303375.538000,-6.000000,6.000000,24.000000,-3.000000,-1.000000,-6.000000,-2.000000,22.000000
1303375.538029,-6.000000,0.000000,0.000000,3.000000,-10.000000,-5.000000,-16.000000,-9.000000
1303375.544853,-9.000000,3.000000,3.000000,-1.000000,-7.000000,-6.000000,-7.000000,-10.000000
1303375.544877,8.000000,-5.000000,-7.000000,-42.000000,-20.000000,-6.000000,-3.000000,-5.000000
1303375.545712,-1.000000,-3.000000,-4.000000,-15.000000,-6.000000,-1.000000,-7.000000,1.000000
1303375.545727,1.000000,-5.000000,-15.000000,-21.000000,0.000000,-1.000000,2.000000,-3.000000
1303375.547031,9.000000,-9.000000,-3.000000,-7.000000,-3.000000,-6.000000,-6.000000,-4.000000
1303375.547040,-9.000000,4.000000,-16.000000,-8.000000,-1.000000,0.000000,-1.000000,1.000000
1303375.560134,2.000000,6.000000,53.000000,16.000000,-1.000000,0.000000,-4.000000,-1.000000
1303375.560143,7.000000,4.000000,-15.000000,-19.000000,-4.000000,-1.000000,-6.000000,0.000000
1303375.567014,-2.000000,1.000000,22.000000,10.000000,7.000000,3.000000,8.000000,-5.000000
1303375.567024,-10.000000,0.000000,4.000000,-15.000000,1.000000,2.000000,-4.000000,1.000000
1303375.582639,3.000000,-1.000000,7.000000,-16.000000,-12.000000,0.000000,-38.000000,-6.000000
1303375.582648,-8.000000,-3.000000,-10.000000,-8.000000,-3.000000,-5.000000,35.000000,10.000000
1303375.596957,13.000000,0.000000,-2.000000,-4.000000,3.000000,3.000000,-6.000000,-5.000000
1303375.596973,-5.000000,-4.000000,2.000000,42.000000,13.000000,2.000000,6.000000,15.000000
1303375.619834,1.000000,-3.000000,-20.000000,-29.000000,-16.000000,-6.000000,3.000000,5.000000
1303375.619845,13.000000,-7.000000,9.000000,-36.000000,-11.000000,-11.000000,-14.000000,-11.000000
1303375.643199,-10.000000,0.000000,-1.000000,-6.000000,-3.000000,-4.000000,-10.000000,-4.000000
1303375.643240,2.000000,-4.000000,-15.000000,103.000000,32.000000,5.000000,-10.000000,-10.000000
1303375.666142,10.000000,-6.000000,4.000000,-9.000000,-9.000000,-6.000000,11.000000,10.000000
1303375.666166,-8.000000,0.000000,-30.000000,-27.000000,-8.000000,-5.000000,-2.000000,1.000000
1303375.666534,16.000000,-2.000000,10.000000,22.000000,10.000000,5.000000,-5.000000,-1.000000
1303375.666556,-9.000000,5.000000,23.000000,-11.000000,2.000000,0.000000,-3.000000,-3.000000
1303375.667256,0.000000,9.000000,-24.000000,-11.000000,3.000000,-1.000000,-2.000000,-5.000000
1303375.667267,-13.000000,-4.000000,-21.000000,-63.000000,-13.000000,-8.000000,-15.000000,-11.000000
1303375.667604,-8.000000,-12.000000,18.000000,49.000000,14.000000,12.000000,17.000000,8.000000
1303375.667615,19.000000,-2.000000,8.000000,-26.000000,-6.000000,-4.000000,10.000000,24.000000
1303375.702205,-15.000000,5.000000,-12.000000,-1.000000,11.000000,6.000000,20.000000,3.000000
1303375.702218,19.000000,-8.000000,-5.000000,-18.000000,-6.000000,0.000000,7.000000,21.000000
1303375.717328,-32.000000,-6.000000,8.000000,14.000000,-1.000000,-4.000000,-15.000000,-19.000000
1303375.717392,8.000000,2.000000,-20.000000,13.000000,7.000000,2.000000,6.000000,4.000000
1303375.732394,-6.000000,-5.000000,-8.000000,1.000000,-7.000000,-3.000000,-6.000000,-6.000000
1303375.732444,0.000000,-4.000000,8.000000,-32.000000,-5.000000,0.000000,-2.000000,-1.000000
1303375.739942,11.000000,5.000000,10.000000,6.000000,0.000000,-2.000000,2.000000,-1.000000
1303375.739978,3.000000,5.000000,29.000000,26.000000,16.000000,-1.000000,1.000000,3.000000
1303375.777106,-36.000000,8.000000,-29.000000,6.000000,-5.000000,4.000000,-3.000000,-6.000000
1303375.777127,6.000000,1.000000,-14.000000,-23.000000,-12.000000,0.000000,6.000000,1.000000
1303375.784757,16.000000,2.000000,4.000000,-17.000000,-14.000000,-10.000000,-8.000000,-1.000000
1303375.784779,-9.000000,6.000000,-35.000000,-10.000000,-7.000000,4.000000,7.000000,-9.000000
1303375.799789,14.000000,2.000000,-31.000000,-26.000000,-6.000000,-3.000000,19.000000,24.000000
1303375.799817,0.000000,2.000000,6.000000,-7.000000,-6.000000,-3.000000,-8.000000,-7.000000
1303375.800556,-6.000000,3.000000,-10.000000,-36.000000,-9.000000,-7.000000,-18.000000,-15.000000
1303375.800564,7.000000,-1.000000,-18.000000,49.000000,3.000000,-2.000000,4.000000,1.000000
1303375.803408,18.000000,2.000000,-29.000000,-30.000000,-7.000000,-3.000000,-6.000000,13.000000
1303375.803417,5.000000,-3.000000,8.000000,23.000000,3.000000,2.000000,-1.000000,-6.000000
1303375.814518,-13.000000,-3.000000,11.000000,-12.000000,3.000000,-8.000000,-1.000000,-11.000000
1303375.814528,-7.000000,-2.000000,10.000000,57.000000,7.000000,1.000000,-9.000000,-12.000000
1303375.822717,-4.000000,0.000000,-7.000000,4.000000,-1.000000,0.000000,4.000000,-5.000000
1303375.822729,18.000000,-3.000000,-4.000000,-44.000000,0.000000,2.000000,21.000000,17.000000
1303375.837063,-2.000000,0.000000,-1.000000,27.000000,-10.000000,-12.000000,-22.000000,-1.000000
1303375.837073,-7.000000,0.000000,6.000000,-20.000000,-4.000000,-4.000000,-9.000000,-19.000000
1303375.859693,-5.000000,-9.000000,-33.000000,-9.000000,-6.000000,-3.000000,6.000000,7.000000
1303375.859703,1.000000,-4.000000,5.000000,0.000000,-9.000000,2.000000,-9.000000,-8.000000
1303375.874631,15.000000,2.000000,14.000000,3.000000,-1.000000,0.000000,13.000000,6.000000
1303375.874650,-40.000000,0.000000,-52.000000,8.000000,5.000000,-1.000000,1.000000,1.000000
1303375.897132,-3.000000,0.000000,-5.000000,-10.000000,-3.000000,4.000000,-9.000000,-7.000000
1303375.897143,-1.000000,-6.000000,7.000000,36.000000,4.000000,-5.000000,0.000000,-3.000000
1303375.897627,0.000000,0.000000,21.000000,39.000000,-1.000000,-5.000000,3.000000,4.000000
1303375.897635,15.000000,-3.000000,-27.000000,-24.000000,-9.000000,-12.000000,-17.000000,-12.000000
1303375.898620,-1.000000,2.000000,4.000000,-9.000000,-7.000000,-2.000000,0.000000,-4.000000
1303375.898628,-28.000000,-4.000000,28.000000,-33.000000,-8.000000,-4.000000,7.000000,5.000000
1303375.899267,15.000000,-4.000000,-5.000000,-16.000000,-2.000000,1.000000,-44.000000,-18.000000
1303375.899275,-1.000000,-6.000000,-11.000000,-36.000000,-4.000000,-4.000000,41.000000,13.000000
1303375.901228,-7.000000,-6.000000,1.000000,49.000000,14.000000,3.000000,-9.000000,2.000000
1303375.901239,-3.000000,-1.000000,-12.000000,-55.000000,-19.000000,-6.000000,-16.000000,-13.000000
1303375.919737,-2.000000,-2.000000,18.000000,34.000000,5.000000,3.000000,15.000000,6.000000
1303375.919750,0.000000,-2.000000,-22.000000,-14.000000,0.000000,4.000000,-8.000000,3.000000
1303375.920781,-1.000000,-8.000000,-4.000000,-31.000000,-9.000000,-3.000000,4.000000,-10.000000
1303375.920791,-1.000000,-4.000000,11.000000,22.000000,18.000000,12.000000,20.000000,15.000000
1303375.927033,-1.000000,0.000000,-20.000000,-9.000000,-10.000000,-7.000000,-6.000000,-2.000000
1303375.927062,3.000000,-2.000000,9.000000,-15.000000,-4.000000,-7.000000,-12.000000,-2.000000
1303375.942627,-14.000000,3.000000,12.000000,14.000000,5.000000,1.000000,3.000000,1.000000
1303375.942637,13.000000,-3.000000,-6.000000,-9.000000,0.000000,4.000000,13.000000,2.000000
1303375.957140,-12.000000,1.000000,7.000000,-27.000000,-10.000000,4.000000,6.000000,-1.000000
1303375.957150,-7.000000,-2.000000,4.000000,11.000000,3.000000,-11.000000,-5.000000,0.000000
1303375.994474,12.000000,1.000000,-58.000000,6.000000,3.000000,2.000000,-3.000000,-1.000000
1303375.994484,-4.000000,-1.000000,-7.000000,-20.000000,-7.000000,1.000000,-3.000000,-2.000000
1303376.002263,7.000000,6.000000,10.000000,32.000000,2.000000,0.000000,-2.000000,14.000000
1303376.002274,9.000000,-2.000000,-13.000000,5.000000,9.000000,5.000000,4.000000,-12.000000
1303376.017434,-9.000000,-5.000000,20.000000,52.000000,7.000000,7.000000,20.000000,24.000000
1303376.017447,13.000000,2.000000,7.000000,-14.000000,-5.000000,-6.000000,-9.000000,0.000000
1303376.018163,-6.000000,1.000000,0.000000,-8.000000,-7.000000,-3.000000,-12.000000,-17.000000
1303376.018180,0.000000,-7.000000,0.000000,2.000000,-9.000000,-5.000000,4.000000,-7.000000
1303376.019320,-4.000000,2.000000,6.000000,-6.000000,3.000000,7.000000,-2.000000,1.000000
1303376.019329,-10.000000,-5.000000,-64.000000,-35.000000,-7.000000,3.000000,-7.000000,-2.000000
1303376.019916,8.000000,1.000000,15.000000,-6.000000,-3.000000,1.000000,5.000000,8.000000
1303376.019925,-1.000000,1.000000,4.000000,-1.000000,3.000000,0.000000,-48.000000,-16.000000
1303376.039453,6.000000,-2.000000,3.000000,-51.000000,-11.000000,-7.000000,-12.000000,-2.000000
1303376.039482,-18.000000,6.000000,13.000000,-6.000000,3.000000,3.000000,-5.000000,-5.000000
1303376.054629,-15.000000,-4.000000,-8.000000,23.000000,-7.000000,1.000000,-6.000000,-13.000000
1303376.054640,26.000000,2.000000,76.000000,35.000000,19.000000,17.000000,22.000000,23.000000
1303376.055105,10.000000,-6.000000,-10.000000,-14.000000,-6.000000,-7.000000,-5.000000,6.000000
1303376.055114,-12.000000,-6.000000,-30.000000,-7.000000,0.000000,-7.000000,-7.000000,-3.000000
1303376.062049,2.000000,-2.000000,-9.000000,1.000000,1.000000,2.000000,-24.000000,-18.000000
1303376.062060,-24.000000,0.000000,6.000000,-1.000000,-8.000000,-1.000000,3.000000,-8.000000
1303376.069478,23.000000,3.000000,20.000000,69.000000,26.000000,2.000000,23.000000,22.000000
1303376.069490,10.000000,6.000000,-19.000000,-18.000000,-9.000000,-7.000000,4.000000,7.000000
1303376.092143,-6.000000,2.000000,9.000000,-22.000000,-5.000000,5.000000,-14.000000,-16.000000
1303376.092154,-7.000000,4.000000,-24.000000,-2.000000,5.000000,-8.000000,-11.000000,-9.000000
1303376.099706,-3.000000,1.000000,-8.000000,22.000000,4.000000,1.000000,-8.000000,-3.000000
1303376.099721,-1.000000,-8.000000,-11.000000,-23.000000,-11.000000,-5.000000,-5.000000,3.000000
1303376.122050,-9.000000,0.000000,-50.000000,-39.000000,-10.000000,-8.000000,-2.000000,-3.000000
1303376.122079,4.000000,-3.000000,30.000000,93.000000,23.000000,8.000000,-6.000000,-4.000000
1303376.137036,-18.000000,3.000000,-1.000000,-31.000000,-9.000000,1.000000,10.000000,-2.000000
1303376.137048,4.000000,-1.000000,2.000000,-50.000000,-14.000000,-5.000000,6.000000,11.000000
1303376.138054,1.000000,5.000000,-16.000000,-28.000000,-4.000000,-10.000000,-3.000000,-2.000000
1303376.138062,4.000000,1.000000,-2.000000,41.000000,0.000000,-3.000000,-39.000000,-13.000000
1303376.138784,4.000000,-2.000000,13.000000,26.000000,18.000000,7.000000,38.000000,-5.000000
1303376.138793,-10.000000,-1.000000,-11.000000,-23.000000,-13.000000,-7.000000,-13.000000,1.000000
1303376.140292,-5.000000,1.000000,1.000000,-23.000000,-1.000000,0.000000,-10.000000,6.000000
1303376.140300,29.000000,-4.000000,0.000000,-2.000000,1.000000,2.000000,21.000000,5.000000
1303376.152108,-26.000000,4.000000,15.000000,-3.000000,1.000000,-3.000000,2.000000,-18.000000
1303376.152118,6.000000,-1.000000,21.000000,-1.000000,-4.000000,-3.000000,-4.000000,12.000000
1303376.160256,-11.000000,4.000000,-33.000000,21.000000,4.000000,2.000000,19.000000,10.000000
1303376.160267,1.000000,-5.000000,-12.000000,-3.000000,1.000000,-1.000000,4.000000,3.000000
1303376.167087,2.000000,0.000000,31.000000,4.000000,3.000000,1.000000,-4.000000,-1.000000
1303376.167104,0.000000,-7.000000,-6.000000,-14.000000,-3.000000,6.000000,-5.000000,-12.000000
1303376.197313,-11.000000,-2.000000,-29.000000,11.000000,-10.000000,-13.000000,-3.000000,-5.000000
1303376.197326,7.000000,-8.000000,18.000000,-29.000000,7.000000,2.000000,3.000000,6.000000
1303376.212229,-1.000000,3.000000,12.000000,0.000000,4.000000,2.000000,1.000000,-4.000000
1303376.212245,11.000000,-1.000000,5.000000,-31.000000,-4.000000,5.000000,4.000000,5.000000
1303376.234708,-29.000000,-2.000000,-17.000000,-19.000000,-2.000000,-4.000000,-13.000000,-10.000000
1303376.234722,9.000000,0.000000,1.000000,-47.000000,-5.000000,0.000000,0.000000,-6.000000
1303376.235165,16.000000,-8.000000,-11.000000,-4.000000,5.000000,6.000000,16.000000,25.000000
1303376.235175,2.000000,0.000000,7.000000,-6.000000,-9.000000,-3.000000,-7.000000,-3.000000
1303376.236172,5.000000,2.000000,27.000000,-25.000000,-9.000000,-14.000000,-74.000000,-29.000000
1303376.236182,-33.000000,-5.000000,-25.000000,-43.000000,-4.000000,-3.000000,70.000000,5.000000
1303376.236847,-1.000000,10.000000,26.000000,68.000000,20.000000,4.000000,19.000000,22.000000
1303376.236857,5.000000,-3.000000,-14.000000,35.000000,2.000000,-2.000000,-24.000000,-14.000000
1303376.249739,5.000000,1.000000,15.000000,-13.000000,-3.000000,-5.000000,-14.000000,-7.000000
1303376.249773,3.000000,-8.000000,-6.000000,-2.000000,-6.000000,-6.000000,-12.000000,-6.000000
1303376.257263,-20.000000,0.000000,19.000000,-10.000000,-3.000000,-1.000000,-4.000000,-2.000000
1303376.257419,14.000000,-7.000000,-24.000000,-26.000000,3.000000,-2.000000,-7.000000,-3.000000
1303376.258448,-4.000000,-6.000000,9.000000,17.000000,-3.000000,2.000000,9.000000,8.000000
1303376.258470,-3.000000,3.000000,4.000000,-7.000000,-7.000000,-5.000000,-12.000000,-8.000000
1303376.271950,-4.000000,0.000000,3.000000,7.000000,2.000000,-5.000000,3.000000,-1.000000
1303376.271959,4.000000,-2.000000,-9.000000,9.000000,-4.000000,-10.000000,-7.000000,-2.000000
1303376.294642,-21.000000,0.000000,-7.000000,-26.000000,-20.000000,-6.000000,-8.000000,-12.000000
1303376.294663,22.000000,-2.000000,18.000000,-5.000000,-14.000000,1.000000,11.000000,11.000000
1303376.317022,0.000000,4.000000,-1.000000,12.000000,27.000000,4.000000,-11.000000,-11.000000
1303376.317051,-19.000000,7.000000,12.000000,2.000000,-7.000000,-4.000000,2.000000,-6.000000
1303376.339673,21.000000,-4.000000,12.000000,29.000000,-2.000000,-2.000000,3.000000,11.000000
1303376.339683,2.000000,0.000000,-3.000000,0.000000,-5.000000,-5.000000,-1.000000,-7.000000
1303376.354516,2.000000,-7.000000,2.000000,16.000000,0.000000,2.000000,8.000000,-3.000000
1303376.354528,4.000000,2.000000,14.000000,-5.000000,-6.000000,-3.000000,6.000000,21.000000
1303376.392082,-4.000000,-5.000000,-15.000000,8.000000,9.000000,2.000000,-14.000000,-10.000000
1303376.392093,-4.000000,-4.000000,23.000000,10.000000,-1.000000,-5.000000,-9.000000,-14.000000
1303376.399585,22.000000,1.000000,9.000000,15.000000,2.000000,6.000000,15.000000,9.000000
1303376.399630,-45.000000,-6.000000,3.000000,-42.000000,-2.000000,-11.000000,-2.000000,-10.000000
1303376.414488,12.000000,-7.000000,25.000000,-10.000000,-9.000000,-3.000000,-5.000000,4.000000
1303376.414499,1.000000,-8.000000,-30.000000,-14.000000,-7.000000,-7.000000,-1.000000,-3.000000
1303376.415423,9.000000,1.000000,9.000000,-3.000000,-7.000000,-1.000000,1.000000,-2.000000
1303376.415430,0.000000,-8.000000,5.000000,-4.000000,6.000000,-7.000000,-14.000000,-1.000000
1303376.416142,0.000000,-3.000000,-6.000000,-23.000000,-11.000000,6.000000,9.000000,-1.000000
1303376.416150,0.000000,-1.000000,6.000000,22.000000,15.000000,11.000000,-2.000000,-7.000000
1303376.416785,-4.000000,-5.000000,-2.000000,7.000000,8.000000,1.000000,-4.000000,-3.000000
1303376.416792,-4.000000,9.000000,-30.000000,12.000000,-3.000000,-3.000000,-9.000000,-9.000000
1303376.429642,-12.000000,0.000000,32.000000,-16.000000,-7.000000,-1.000000,13.000000,5.000000
1303376.429653,5.000000,10.000000,-44.000000,-26.000000,-9.000000,-5.000000,5.000000,5.000000
1303376.436974,-4.000000,-2.000000,17.000000,-1.000000,-9.000000,-10.000000,-4.000000,2.000000
1303376.437003,15.000000,1.000000,-20.000000,-1.000000,3.000000,2.000000,-2.000000,5.000000
1303376.482103,-2.000000,-2.000000,2.000000,-1.000000,-4.000000,-4.000000,-7.000000,-9.000000
1303376.482113,-17.000000,2.000000,-11.000000,58.000000,-3.000000,5.000000,-13.000000,-23.000000
1303376.496837,23.000000,10.000000,15.000000,-19.000000,-15.000000,-1.000000,17.000000,9.000000
1303376.496855,-26.000000,2.000000,13.000000,-21.000000,-3.000000,-1.000000,-2.000000,9.000000
1303376.497994,-15.000000,-4.000000,-13.000000,-12.000000,-9.000000,-6.000000,-6.000000,-7.000000
1303376.498004,-4.000000,4.000000,-6.000000,-26.000000,-18.000000,-7.000000,-9.000000,-14.000000
1303376.498608,-8.000000,1.000000,-42.000000,-3.000000,12.000000,-3.000000,-7.000000,-8.000000
1303376.498617,4.000000,-4.000000,26.000000,20.000000,1.000000,-2.000000,-3.000000,-3.000000
1303376.499802,-2.000000,2.000000,-9.000000,22.000000,-9.000000,-4.000000,0.000000,6.000000
1303376.499810,8.000000,5.000000,12.000000,-18.000000,-7.000000,-5.000000,9.000000,-1.000000
1303376.512227,2.000000,0.000000,-31.000000,1.000000,3.000000,-2.000000,-2.000000,5.000000
1303376.512238,-11.000000,4.000000,13.000000,16.000000,4.000000,6.000000,-7.000000,-6.000000
1303376.534936,-6.000000,-7.000000,-33.000000,-24.000000,-6.000000,4.000000,4.000000,-1.000000
1303376.534950,-1.000000,-4.000000,12.000000,48.000000,21.000000,1.000000,-1.000000,-7.000000
1303376.535658,13.000000,6.000000,20.000000,-13.000000,-5.000000,2.000000,-20.000000,3.000000
1303376.535666,-10.000000,2.000000,-11.000000,-17.000000,-9.000000,-8.000000,20.000000,1.000000
1303376.557223,1.000000,0.000000,9.000000,-30.000000,-9.000000,-2.000000,-32.000000,-11.000000
1303376.557235,1.000000,2.000000,5.000000,26.000000,5.000000,4.000000,37.000000,-1.000000
1303376.564817,-6.000000,-1.000000,-12.000000,-28.000000,-9.000000,-1.000000,-8.000000,5.000000
1303376.564829,6.000000,-3.000000,-3.000000,5.000000,1.000000,-13.000000,-74.000000,-20.000000
1303376.616910,-33.000000,-3.000000,15.000000,8.000000,5.000000,1.000000,9.000000,-19.000000
1303376.616921,11.000000,-7.000000,-20.000000,-42.000000,-8.000000,4.000000,43.000000,25.000000
1303376.617367,4.000000,1.000000,2.000000,40.000000,12.000000,8.000000,1.000000,11.000000
1303376.617376,1.000000,-11.000000,2.000000,-1.000000,2.000000,-3.000000,-25.000000,-24.000000
1303376.618715,-3.000000,-3.000000,-55.000000,-3.000000,-1.000000,-11.000000,-30.000000,-19.000000
1303376.618726,-4.000000,2.000000,6.000000,1.000000,-6.000000,-8.000000,-9.000000,-10.000000
1303376.619361,4.000000,-3.000000,18.000000,92.000000,17.000000,9.000000,13.000000,7.000000
1303376.619370,-3.000000,-1.000000,0.000000,-2.000000,-12.000000,-7.000000,-6.000000,-6.000000
1303376.620954,-7.000000,-6.000000,-11.000000,-32.000000,4.000000,7.000000,12.000000,4.000000
1303376.620972,5.000000,-6.000000,-23.000000,-36.000000,-18.000000,-5.000000,-24.000000,2.000000
1303376.632143,4.000000,-6.000000,-5.000000,8.000000,1.000000,3.000000,-12.000000,-5.000000
1303376.632177,-10.000000,-6.000000,-34.000000,-5.000000,-5.000000,-8.000000,-7.000000,-7.000000
1303376.669467,15.000000,0.000000,20.000000,13.000000,0.000000,-1.000000,-27.000000,-18.000000
1303376.669478,-42.000000,0.000000,-6.000000,-29.000000,-9.000000,-4.000000,39.000000,11.000000
1303376.684577,2.000000,-3.000000,-22.000000,26.000000,9.000000,2.000000,2.000000,6.000000
1303376.684587,12.000000,1.000000,-32.000000,-22.000000,2.000000,3.000000,-3.000000,-6.000000
1303376.707248,-5.000000,4.000000,18.000000,26.000000,-6.000000,-10.000000,-11.000000,-11.000000
1303376.707260,-3.000000,-1.000000,10.000000,104.000000,30.000000,6.000000,-12.000000,-4.000000
1303376.714501,7.000000,-2.000000,5.000000,-8.000000,5.000000,3.000000,18.000000,10.000000
1303376.714512,-13.000000,1.000000,3.000000,7.000000,-12.000000,-1.000000,0.000000,-7.000000
1303376.715566,-4.000000,3.000000,-44.000000,-37.000000,-12.000000,6.000000,-7.000000,-12.000000
1303376.715576,23.000000,-3.000000,4.000000,31.000000,3.000000,-8.000000,43.000000,24.000000
1303376.716281,-12.000000,-1.000000,9.000000,-1.000000,-6.000000,-1.000000,-7.000000,16.000000
1303376.716291,9.000000,5.000000,38.000000,-5.000000,-6.000000,0.000000,-9.000000,-10.000000
1303376.717727,3.000000,-2.000000,19.000000,38.000000,9.000000,2.000000,-9.000000,-6.000000
1303376.717737,-18.000000,-5.000000,-28.000000,-19.000000,-7.000000,-3.000000,-4.000000,-3.000000
1303376.731656,-22.000000,-3.000000,-7.000000,-8.000000,0.000000,-2.000000,-9.000000,-10.000000
1303376.731735,3.000000,-9.000000,-20.000000,-8.000000,0.000000,-3.000000,-8.000000,-3.000000
1303376.731833,2.000000,-3.000000,-3.000000,-15.000000,-2.000000,-5.000000,-8.000000,-14.000000
1303376.731840,8.000000,-1.000000,12.000000,16.000000,7.000000,5.000000,15.000000,23.000000
1303376.752545,7.000000,5.000000,29.000000,10.000000,7.000000,-3.000000,-16.000000,-3.000000
1303376.752572,1.000000,-5.000000,2.000000,-19.000000,-10.000000,2.000000,11.000000,-4.000000
1303376.753362,7.000000,2.000000,-26.000000,-22.000000,-8.000000,-1.000000,7.000000,-6.000000
1303376.753390,-6.000000,0.000000,-1.000000,63.000000,9.000000,2.000000,5.000000,14.000000
1303376.767375,-2.000000,-3.000000,2.000000,-18.000000,-6.000000,-2.000000,-11.000000,-2.000000
1303376.767404,12.000000,0.000000,24.000000,-33.000000,-7.000000,-6.000000,8.000000,3.000000
1303376.768157,2.000000,-6.000000,-2.000000,9.000000,1.000000,-5.000000,7.000000,15.000000
1303376.768168,-1.000000,-1.000000,12.000000,3.000000,-4.000000,-1.000000,-21.000000,-14.000000
1303376.789535,3.000000,3.000000,-14.000000,-18.000000,-1.000000,3.000000,-11.000000,-13.000000
1303376.789545,-14.000000,3.000000,-38.000000,56.000000,24.000000,1.000000,6.000000,1.000000
1303376.804569,13.000000,-4.000000,-8.000000,-21.000000,-1.000000,-2.000000,2.000000,14.000000
1303376.804599,-20.000000,0.000000,13.000000,4.000000,-6.000000,-2.000000,-14.000000,-8.000000
1303376.834543,4.000000,2.000000,-30.000000,1.000000,3.000000,0.000000,21.000000,-3.000000
1303376.834553,-1.000000,0.000000,11.000000,-2.000000,-4.000000,-2.000000,-4.000000,-2.000000
1303376.849691,-6.000000,10.000000,-1.000000,-18.000000,-8.000000,-5.000000,-8.000000,-2.000000
1303376.849708,13.000000,3.000000,-23.000000,47.000000,2.000000,-4.000000,0.000000,-4.000000
1303376.850542,-15.000000,-1.000000,18.000000,-4.000000,17.000000,-1.000000,3.000000,10.000000
1303376.850551,3.000000,-5.000000,3.000000,38.000000,0.000000,3.000000,3.000000,7.000000
1303376.851169,-9.000000,0.000000,-5.000000,-31.000000,-9.000000,1.000000,-17.000000,-17.000000
1303376.851177,-3.000000,-6.000000,-8.000000,-18.000000,-9.000000,-9.000000,-11.000000,-11.000000
1303376.852573,-24.000000,3.000000,-6.000000,-28.000000,-11.000000,-2.000000,28.000000,10.000000
1303376.852583,24.000000,7.000000,-29.000000,-4.000000,5.000000,3.000000,-26.000000,23.000000
1303376.853437,-8.000000,1.000000,8.000000,2.000000,-3.000000,-2.000000,33.000000,3.000000
1303376.853445,9.000000,-3.000000,15.000000,-10.000000,-5.000000,-10.000000,-19.000000,-9.000000
1303376.872429,-21.000000,-1.000000,5.000000,5.000000,-6.000000,-4.000000,-5.000000,-1.000000
1303376.872438,11.000000,1.000000,-3.000000,-6.000000,-6.000000,-8.000000,-7.000000,-1.000000
1303376.873221,-5.000000,-5.000000,-2.000000,-24.000000,-5.000000,-1.000000,-4.000000,-5.000000
1303376.873249,-1.000000,-3.000000,-19.000000,42.000000,10.000000,6.000000,8.000000,12.000000
1303376.887788,-5.000000,-7.000000,-19.000000,-6.000000,-4.000000,-3.000000,0.000000,1.000000
1303376.887798,-2.000000,-1.000000,1.000000,1.000000,13.000000,0.000000,0.000000,3.000000
1303376.909570,7.000000,11.000000,17.000000,12.000000,5.000000,-2.000000,3.000000,4.000000
1303376.909584,5.000000,-5.000000,-37.000000,-26.000000,-6.000000,-3.000000,-7.000000,-5.000000
1303376.947143,-14.000000,-5.000000,-7.000000,-5.000000,-6.000000,-3.000000,-8.000000,-7.000000
1303376.947155,12.000000,-2.000000,3.000000,1.000000,-6.000000,-4.000000,1.000000,7.000000
1303376.954344,0.000000,-9.000000,-18.000000,-31.000000,-2.000000,2.000000,22.000000,6.000000
1303376.954359,3.000000,4.000000,27.000000,-6.000000,-18.000000,-1.000000,-13.000000,-13.000000
1303376.955820,-1.000000,-5.000000,-62.000000,46.000000,22.000000,6.000000,-1.000000,0.000000
1303376.955838,-14.000000,-3.000000,30.000000,-11.000000,-3.000000,-1.000000,-5.000000,-4.000000
1303376.956266,7.000000,4.000000,-16.000000,-12.000000,2.000000,-3.000000,8.000000,10.000000
1303376.956299,0.000000,-7.000000,-5.000000,-23.000000,-8.000000,-2.000000,-3.000000,9.000000
1303376.969592,2.000000,3.000000,-3.000000,-38.000000,-5.000000,-10.000000,-7.000000,-3.000000
1303376.969603,-9.000000,-1.000000,-16.000000,18.000000,-1.000000,7.000000,19.000000,8.000000
1303376.984762,4.000000,0.000000,-37.000000,1.000000,-1.000000,-8.000000,-26.000000,-11.000000
1303376.984774,1.000000,-5.000000,6.000000,-2.000000,2.000000,5.000000,33.000000,13.000000
1303376.992047,15.000000,-6.000000,19.000000,-22.000000,-11.000000,-4.000000,-8.000000,6.000000
1303376.992058,-7.000000,-5.000000,-40.000000,-6.000000,11.000000,0.000000,-8.000000,-4.000000
1303377.014537,-11.000000,1.000000,4.000000,22.000000,5.000000,-4.000000,-9.000000,-7.000000
1303377.014548,1.000000,3.000000,7.000000,-6.000000,-5.000000,-1.000000,4.000000,2.000000
1303377.029828,7.000000,0.000000,3.000000,-24.000000,-5.000000,-4.000000,-4.000000,1.000000
1303377.029839,-3.000000,-5.000000,27.000000,29.000000,4.000000,4.000000,-18.000000,-6.000000
1303377.030608,14.000000,0.000000,16.000000,8.000000,7.000000,-1.000000,3.000000,0.000000
1303377.030622,1.000000,1.000000,-24.000000,-79.000000,-15.000000,-7.000000,-2.000000,-5.000000
1303377.031183,-7.000000,-2.000000,6.000000,14.000000,10.000000,9.000000,17.000000,17.000000
1303377.031192,13.000000,2.000000,11.000000,-11.000000,0.000000,-4.000000,6.000000,30.000000
1303377.032479,-1.000000,2.000000,-14.000000,-23.000000,-7.000000,-5.000000,-4.000000,-11.000000
1303377.032489,-11.000000,-9.000000,16.000000,-27.000000,-3.000000,4.000000,4.000000,-1.000000
1303377.033310,6.000000,4.000000,25.000000,1.000000,-4.000000,-3.000000,-12.000000,-16.000000
1303377.033320,13.000000,1.000000,-21.000000,-20.000000,-1.000000,4.000000,0.000000,16.000000
1303377.045232,-3.000000,-4.000000,8.000000,3.000000,3.000000,-1.000000,2.000000,2.000000
1303377.045297,-14.000000,-2.000000,6.000000,-11.000000,-2.000000,-2.000000,18.000000,24.000000
1303377.052014,13.000000,1.000000,10.000000,-1.000000,-1.000000,-1.000000,-50.000000,-16.000000
1303377.052025,-2.000000,-1.000000,-14.000000,-39.000000,-18.000000,0.000000,44.000000,0.000000
1303377.067089,-11.000000,-3.000000,26.000000,26.000000,7.000000,6.000000,-21.000000,5.000000
1303377.067099,6.000000,7.000000,55.000000,-14.000000,-10.000000,1.000000,7.000000,-4.000000
1303377.089450,-10.000000,-5.000000,13.000000,50.000000,-7.000000,-11.000000,-17.000000,-10.000000
1303377.089460,6.000000,1.000000,-11.000000,-2.000000,3.000000,-4.000000,-15.000000,-5.000000
1303377.090831,-5.000000,-1.000000,13.000000,-8.000000,-4.000000,-5.000000,1.000000,5.000000
1303377.090852,-11.000000,6.000000,-16.000000,-5.000000,-4.000000,-5.000000,3.000000,-4.000000
1303377.104332,24.000000,-6.000000,13.000000,-82.000000,-12.000000,-9.000000,-6.000000,12.000000
1303377.104347,-14.000000,8.000000,19.000000,70.000000,21.000000,12.000000,-5.000000,-9.000000
1303377.112337,11.000000,3.000000,2.000000,-24.000000,-9.000000,2.000000,11.000000,16.000000
1303377.112372,15.000000,3.000000,-21.000000,4.000000,-1.000000,-14.000000,-6.000000,-15.000000
1303377.119783,-7.000000,-4.000000,20.000000,-1.000000,-7.000000,-6.000000,5.000000,19.000000
1303377.119795,-32.000000,2.000000,18.000000,-12.000000,-7.000000,-3.000000,-16.000000,-13.000000
1303377.164810,15.000000,-4.000000,20.000000,4.000000,3.000000,0.000000,12.000000,0.000000
1303377.164823,-17.000000,-3.000000,-61.000000,-23.000000,-8.000000,2.000000,27.000000,16.000000
1303377.172108,-2.000000,3.000000,-13.000000,-5.000000,8.000000,-1.000000,-11.000000,-10.000000
1303377.172120,1.000000,6.000000,5.000000,11.000000,-13.000000,-2.000000,-3.000000,-4.000000
1303377.173039,2.000000,-1.000000,12.000000,-26.000000,-3.000000,5.000000,33.000000,12.000000
1303377.173049,-3.000000,-6.000000,13.000000,40.000000,25.000000,13.000000,-22.000000,15.000000
1303377.173674,-12.000000,4.000000,-44.000000,-36.000000,-13.000000,-6.000000,9.000000,-6.000000
1303377.173683,12.000000,-4.000000,47.000000,-3.000000,2.000000,-4.000000,-15.000000,-1.000000
1303377.175216,-3.000000,1.000000,-50.000000,-20.000000,-6.000000,-3.000000,-15.000000,-13.000000
1303377.175227,-9.000000,3.000000,39.000000,2.000000,-2.000000,2.000000,-5.000000,-6.000000
1303377.187687,9.000000,3.000000,-7.000000,-55.000000,3.000000,-11.000000,-10.000000,-14.000000
1303377.187706,0.000000,0.000000,-7.000000,-34.000000,-10.000000,1.000000,3.000000,12.000000
1303377.201950,-5.000000,-4.000000,14.000000,10.000000,7.000000,2.000000,14.000000,-7.000000
1303377.201961,5.000000,2.000000,-4.000000,-4.000000,-5.000000,-9.000000,-9.000000,0.000000
1303377.210158,-6.000000,-9.000000,10.000000,-7.000000,-17.000000,-12.000000,-5.000000,-18.000000
1303377.210173,6.000000,-4.000000,-4.000000,36.000000,21.000000,8.000000,13.000000,19.000000
1303377.210836,2.000000,-6.000000,-64.000000,-10.000000,-3.000000,-1.000000,-25.000000,-11.000000
1303377.210846,-10.000000,3.000000,-8.000000,-6.000000,-9.000000,-6.000000,23.000000,7.000000
1303377.224588,5.000000,-3.000000,6.000000,-6.000000,0.000000,-2.000000,-9.000000,-9.000000
1303377.224600,11.000000,-1.000000,11.000000,-12.000000,-3.000000,0.000000,-14.000000,0.000000
1303377.231907,-11.000000,5.000000,20.000000,29.000000,3.000000,-3.000000,3.000000,-8.000000
1303377.231917,8.000000,9.000000,14.000000,47.000000,24.000000,6.000000,8.000000,6.000000
1303377.262265,-3.000000,-1.000000,-2.000000,-10.000000,2.000000,2.000000,-17.000000,-5.000000
1303377.262276,4.000000,-3.000000,-12.000000,-16.000000,-6.000000,-4.000000,20.000000,6.000000
1303377.269541,-10.000000,3.000000,3.000000,10.000000,8.000000,-6.000000,-19.000000,-4.000000
1303377.269553,-11.000000,-6.000000,-8.000000,-26.000000,0.000000,-3.000000,-6.000000,-14.000000
1303377.284442,3.000000,-5.000000,6.000000,11.000000,-11.000000,0.000000,1.000000,6.000000
1303377.284459,-16.000000,6.000000,-55.000000,-19.000000,-7.000000,-3.000000,-17.000000,-16.000000
1303377.307230,30.000000,2.000000,-6.000000,7.000000,-6.000000,1.000000,13.000000,16.000000
1303377.307241,-7.000000,8.000000,6.000000,-5.000000,2.000000,-4.000000,-6.000000,8.000000
1303377.322442,-17.000000,0.000000,3.000000,16.000000,1.000000,1.000000,-13.000000,-22.000000
1303377.322477,0.000000,-5.000000,9.000000,-9.000000,-7.000000,-6.000000,12.000000,9.000000
1303377.322947,6.000000,-1.000000,15.000000,-18.000000,2.000000,0.000000,15.000000,0.000000
1303377.322966,-21.000000,0.000000,8.000000,-9.000000,-3.000000,5.000000,-27.000000,-18.000000
1303377.324327,-2.000000,-5.000000,-17.000000,10.000000,-4.000000,0.000000,-2.000000,-11.000000
1303377.324343,5.000000,2.000000,8.000000,4.000000,-3.000000,-6.000000,2.000000,16.000000
1303377.324911,-6.000000,2.000000,25.000000,0.000000,0.000000,0.000000,3.000000,-8.000000
1303377.324927,1.000000,2.000000,-2.000000,-23.000000,-17.000000,-6.000000,-9.000000,-5.000000
1303377.325825,-10.000000,-6.000000,-11.000000,-16.000000,-3.000000,1.000000,-5.000000,-5.000000
1303377.325842,15.000000,-1.000000,10.000000,-63.000000,-11.000000,1.000000,-8.000000,5.000000
1303377.329525,4.000000,4.000000,-36.000000,36.000000,6.000000,5.000000,2.000000,-2.000000
1303377.329549,-15.000000,-1.000000,15.000000,-28.000000,-8.000000,-5.000000,13.000000,0.000000
1303377.345542,-9.000000,1.000000,-10.000000,-10.000000,-7.000000,-6.000000,2.000000,0.000000
1303377.345553,4.000000,-1.000000,5.000000,-9.000000,-4.000000,-1.000000,-5.000000,-8.000000
1303377.367141,6.000000,-2.000000,-3.000000,13.000000,-11.000000,-5.000000,-12.000000,-4.000000
1303377.367165,0.000000,-2.000000,-4.000000,1.000000,-3.000000,2.000000,17.000000,-1.000000
1303377.389600,8.000000,2.000000,4.000000,-27.000000,-13.000000,-6.000000,-1.000000,1.000000
1303377.389610,-6.000000,0.000000,9.000000,49.000000,13.000000,5.000000,-1.000000,-5.000000
1303377.404667,-13.000000,-1.000000,2.000000,-6.000000,-6.000000,-8.000000,-22.000000,3.000000
1303377.404678,0.000000,-5.000000,1.000000,4.000000,-6.000000,7.000000,31.000000,8.000000
1303377.442083,-2.000000,7.000000,-9.000000,29.000000,2.000000,-7.000000,-51.000000,-18.000000
1303377.442095,-2.000000,-9.000000,14.000000,-4.000000,2.000000,-6.000000,34.000000,9.000000
1303377.442635,6.000000,-5.000000,-7.000000,-21.000000,-5.000000,2.000000,11.000000,33.000000
1303377.442643,7.000000,0.000000,14.000000,76.000000,19.000000,2.000000,-21.000000,-14.000000
1303377.443645,-17.000000,-4.000000,-23.000000,-7.000000,2.000000,-7.000000,-17.000000,-9.000000
1303377.443653,-5.000000,8.000000,0.000000,-9.000000,-12.000000,-7.000000,20.000000,8.000000
1303377.444262,4.000000,2.000000,16.000000,45.000000,1.000000,6.000000,10.000000,3.000000
1303377.444270,-4.000000,-3.000000,-5.000000,26.000000,5.000000,-13.000000,-14.000000,-15.000000
1303377.446236,-4.000000,6.000000,-17.000000,-24.000000,-10.000000,0.000000,-5.000000,2.000000
1303377.446247,-26.000000,2.000000,4.000000,13.000000,1.000000,2.000000,-5.000000,-12.000000
1303377.449765,10.000000,2.000000,10.000000,14.000000,12.000000,5.000000,14.000000,7.000000
1303377.449776,-10.000000,3.000000,-56.000000,-29.000000,-4.000000,-8.000000,-9.000000,2.000000
1303377.465095,-10.000000,-3.000000,-2.000000,-1.000000,-1.000000,-2.000000,-4.000000,-13.000000
1303377.465108,-12.000000,0.000000,-7.000000,-14.000000,6.000000,-2.000000,6.000000,0.000000
1303377.471828,13.000000,-3.000000,1.000000,-33.000000,-15.000000,-8.000000,-15.000000,-13.000000
1303377.471837,-8.000000,-1.000000,2.000000,10.000000,5.000000,9.000000,-38.000000,-13.000000
1303377.502057,-10.000000,-3.000000,1.000000,-4.000000,4.000000,8.000000,56.000000,18.000000
1303377.502068,-5.000000,1.000000,44.000000,-6.000000,-6.000000,-13.000000,20.000000,31.000000
1303377.509514,7.000000,1.000000,-42.000000,-6.000000,2.000000,-4.000000,-23.000000,-11.000000
1303377.509525,4.000000,-9.000000,8.000000,-24.000000,0.000000,-4.000000,-28.000000,-18.000000
1303377.524539,-1.000000,9.000000,-8.000000,5.000000,1.000000,9.000000,31.000000,5.000000
1303377.524569,-4.000000,1.000000,10.000000,17.000000,-1.000000,-5.000000,-7.000000,1.000000
1303377.539630,-8.000000,5.000000,5.000000,-21.000000,-6.000000,0.000000,-28.000000,-37.000000
1303377.539640,1.000000,5.000000,9.000000,17.000000,6.000000,4.000000,27.000000,29.000000
1303377.540596,13.000000,8.000000,11.000000,10.000000,-11.000000,6.000000,32.000000,28.000000
1303377.540608,5.000000,-4.000000,-7.000000,-24.000000,0.000000,0.000000,-16.000000,-13.000000
1303377.541108,-3.000000,-5.000000,-4.000000,3.000000,-1.000000,-4.000000,-7.000000,-4.000000
1303377.541116,-8.000000,-2.000000,-10.000000,-22.000000,2.000000,-5.000000,-9.000000,-3.000000
1303377.543121,-4.000000,2.000000,21.000000,24.000000,5.000000,-1.000000,-10.000000,-13.000000
1303377.543133,-9.000000,0.000000,-63.000000,19.000000,4.000000,-1.000000,-4.000000,-2.000000
1303377.562131,12.000000,-4.000000,10.000000,29.000000,15.000000,4.000000,20.000000,15.000000
1303377.562143,-5.000000,-1.000000,0.000000,-11.000000,-8.000000,-7.000000,-11.000000,-14.000000
1303377.584568,1.000000,-3.000000,-13.000000,-20.000000,3.000000,1.000000,3.000000,-4.000000
1303377.584579,11.000000,-1.000000,2.000000,-6.000000,-12.000000,-5.000000,8.000000,17.000000
1303377.592242,-10.000000,-6.000000,-42.000000,6.000000,0.000000,-3.000000,-4.000000,0.000000
1303377.592253,6.000000,3.000000,26.000000,-22.000000,-5.000000,-4.000000,-7.000000,-11.000000
1303377.606984,-6.000000,-3.000000,31.000000,64.000000,4.000000,8.000000,1.000000,-2.000000
1303377.607013,3.000000,2.000000,-13.000000,-25.000000,-19.000000,-9.000000,-1.000000,1.000000
1303377.622018,-14.000000,0.000000,-2.000000,-11.000000,2.000000,0.000000,-8.000000,-20.000000
1303377.622028,-15.000000,-7.000000,13.000000,11.000000,2.000000,-1.000000,11.000000,6.000000
1303377.667109,12.000000,-6.000000,-8.000000,-19.000000,-11.000000,-11.000000,-16.000000,-2.000000
1303377.667131,1.000000,-3.000000,-18.000000,-13.000000,-1.000000,-3.000000,-7.000000,-7.000000
1303377.682088,-5.000000,4.000000,10.000000,26.000000,-16.000000,-9.000000,-1.000000,0.000000
1303377.682100,0.000000,-9.000000,1.000000,29.000000,14.000000,6.000000,10.000000,-4.000000
1303377.683041,-12.000000,-3.000000,1.000000,-7.000000,0.000000,4.000000,18.000000,20.000000
1303377.683049,-2.000000,-3.000000,-32.000000,-1.000000,1.000000,-4.000000,-12.000000,-2.000000
1303377.683666,-2.000000,0.000000,-3.000000,-23.000000,-6.000000,0.000000,4.000000,-1.000000
1303377.683673,-5.000000,-2.000000,-23.000000,-48.000000,-1.000000,0.000000,-8.000000,-4.000000
1303377.686012,28.000000,1.000000,-30.000000,33.000000,14.000000,5.000000,20.000000,8.000000
1303377.686022,-20.000000,-7.000000,-2.000000,-1.000000,4.000000,1.000000,23.000000,14.000000
1303377.704684,5.000000,-7.000000,19.000000,-9.000000,-1.000000,-3.000000,-4.000000,-7.000000
1303377.704716,4.000000,-11.000000,-19.000000,-37.000000,-5.000000,-4.000000,-12.000000,-14.000000
1303377.726996,-23.000000,-5.000000,7.000000,115.000000,21.000000,-8.000000,-63.000000,-25.000000
1303377.727005,22.000000,-7.000000,36.000000,0.000000,5.000000,6.000000,87.000000,15.000000
1303377.742392,-17.000000,4.000000,-15.000000,4.000000,3.000000,-7.000000,-35.000000,3.000000
1303377.742403,5.000000,-1.000000,7.000000,-15.000000,2.000000,1.000000,44.000000,21.000000
1303377.765191,6.000000,-3.000000,45.000000,-19.000000,-3.000000,2.000000,-17.000000,-8.000000
1303377.765200,-8.000000,-4.000000,-19.000000,13.000000,-3.000000,-1.000000,-33.000000,-34.000000
1303377.765682,-2.000000,2.000000,-17.000000,-33.000000,-12.000000,3.000000,0.000000,17.000000
1303377.765690,-2.000000,-10.000000,18.000000,57.000000,21.000000,2.000000,-15.000000,-18.000000
1303377.766727,22.000000,-4.000000,38.000000,-10.000000,-1.000000,4.000000,37.000000,33.000000
1303377.766735,-3.000000,-1.000000,3.000000,29.000000,-6.000000,3.000000,-5.000000,-12.000000
1303377.767478,7.000000,3.000000,2.000000,-17.000000,1.000000,2.000000,-1.000000,-11.000000
1303377.767485,-9.000000,7.000000,-2.000000,36.000000,4.000000,-10.000000,-90.000000,-20.000000
1303377.779651,13.000000,4.000000,32.000000,5.000000,-6.000000,-5.000000,-13.000000,29.000000
1303377.779663,-4.000000,-6.000000,-12.000000,-6.000000,-6.000000,-5.000000,-32.000000,-19.000000
1303377.787159,2.000000,3.000000,10.000000,-32.000000,-7.000000,3.000000,-2.000000,-2.000000
1303377.787172,8.000000,-2.000000,-6.000000,74.000000,7.000000,-1.000000,9.000000,-5.000000
1303377.802013,6.000000,-2.000000,26.000000,-4.000000,0.000000,-2.000000,-14.000000,-7.000000
1303377.802023,-27.000000,-10.000000,-14.000000,-12.000000,-7.000000,3.000000,-6.000000,-8.000000
1303377.803168,14.000000,-1.000000,2.000000,56.000000,18.000000,5.000000,4.000000,10.000000
1303377.803211,1.000000,7.000000,27.000000,-28.000000,-10.000000,1.000000,-3.000000,1.000000
1303377.817185,-7.000000,-7.000000,-7.000000,-10.000000,-20.000000,-12.000000,-23.000000,-17.000000
1303377.817199,2.000000,3.000000,-15.000000,-47.000000,-14.000000,-7.000000,22.000000,5.000000
1303377.824823,20.000000,1.000000,29.000000,34.000000,18.000000,17.000000,37.000000,36.000000
1303377.824836,-9.000000,7.000000,-23.000000,7.000000,12.000000,-5.000000,-15.000000,-17.000000
1303377.839718,-18.000000,-1.000000,-7.000000,-22.000000,-13.000000,-10.000000,-21.000000,-6.000000
1303377.839737,17.000000,-3.000000,-3.000000,-12.000000,-4.000000,6.000000,19.000000,-9.000000
1303377.877279,-26.000000,-12.000000,-3.000000,-6.000000,-1.000000,-4.000000,-45.000000,2.000000
1303377.877295,1.000000,2.000000,9.000000,-17.000000,-8.000000,6.000000,53.000000,-13.000000
1303377.884549,6.000000,-3.000000,-14.000000,-2.000000,-1.000000,-1.000000,8.000000,10.000000
1303377.884587,22.000000,1.000000,-20.000000,-8.000000,1.000000,1.000000,23.000000,19.000000
1303377.900156,-26.000000,-5.000000,-11.000000,-7.000000,-2.000000,-5.000000,-16.000000,-14.000000
1303377.900166,-8.000000,3.000000,-23.000000,-45.000000,-14.000000,-3.000000,-12.000000,-14.000000
1303377.900734,5.000000,0.000000,29.000000,43.000000,18.000000,6.000000,-8.000000,-16.000000
1303377.900743,6.000000,-4.000000,30.000000,48.000000,6.000000,-3.000000,-5.000000,-4.000000
1303377.902271,-19.000000,-9.000000,-18.000000,-10.000000,-10.000000,-3.000000,6.000000,8.000000
1303377.902299,10.000000,2.000000,-28.000000,-37.000000,-11.000000,1.000000,-6.000000,-6.000000
1303377.902691,-11.000000,-5.000000,-6.000000,4.000000,-5.000000,-6.000000,-4.000000,-5.000000
1303377.902717,-8.000000,2.000000,-6.000000,4.000000,5.000000,-3.000000,-17.000000,-13.000000
1303377.921955,1.000000,5.000000,-6.000000,8.000000,0.000000,-3.000000,36.000000,4.000000
1303377.921965,10.000000,2.000000,-6.000000,0.000000,0.000000,2.000000,-8.000000,11.000000
1303377.922482,-17.000000,-4.000000,-14.000000,20.000000,4.000000,-5.000000,22.000000,5.000000
1303377.922489,1.000000,-10.000000,10.000000,-26.000000,-12.000000,-6.000000,-11.000000,7.000000
1303377.923848,12.000000,-1.000000,-44.000000,-9.000000,7.000000,-1.000000,-12.000000,-13.000000
1303377.923856,7.000000,1.000000,7.000000,23.000000,5.000000,5.000000,-33.000000,-14.000000
1303377.937307,14.000000,-5.000000,20.000000,-11.000000,-4.000000,3.000000,85.000000,20.000000
1303377.937392,-12.000000,6.000000,-19.000000,18.000000,2.000000,-11.000000,-27.000000,-25.000000
1303377.959551,6.000000,0.000000,3.000000,-23.000000,-3.000000,3.000000,18.000000,15.000000
1303377.959561,-6.000000,4.000000,7.000000,-9.000000,7.000000,4.000000,-11.000000,-3.000000
1303377.982182,-10.000000,2.000000,-11.000000,9.000000,9.000000,-2.000000,1.000000,-5.000000
1303377.982202,-3.000000,-5.000000,15.000000,-15.000000,-1.000000,-7.000000,-14.000000,-15.000000
1303378.004471,-7.000000,0.000000,-19.000000,33.000000,4.000000,-2.000000,-4.000000,-5.000000
1303378.004481,12.000000,0.000000,-26.000000,-13.000000,-1.000000,4.000000,5.000000,2.000000
1303378.004892,-5.000000,-2.000000,9.000000,2.000000,-2.000000,-3.000000,-3.000000,-1.000000
1303378.004900,-6.000000,-3.000000,2.000000,-54.000000,0.000000,9.000000,-6.000000,-8.000000
1303378.006189,-3.000000,-4.000000,-21.000000,84.000000,20.000000,4.000000,-37.000000,-28.000000
1303378.006198,-5.000000,-2.000000,-73.000000,-37.000000,-12.000000,-13.000000,43.000000,28.000000
1303378.006697,10.000000,-2.000000,51.000000,-11.000000,1.000000,7.000000,-6.000000,7.000000
1303378.006705,6.000000,1.000000,-7.000000,57.000000,17.000000,4.000000,-1.000000,12.000000
1303378.019391,-2.000000,-4.000000,13.000000,5.000000,-3.000000,3.000000,-10.000000,-11.000000
1303378.019405,16.000000,9.000000,-17.000000,-1.000000,-4.000000,-5.000000,12.000000,19.000000
1303378.041825,6.000000,2.000000,11.000000,2.000000,-1.000000,-4.000000,-13.000000,2.000000
1303378.041862,-13.000000,-10.000000,-7.000000,-12.000000,-4.000000,4.000000,-2.000000,-13.000000
1303378.042375,16.000000,-2.000000,-4.000000,-12.000000,-8.000000,-8.000000,-17.000000,-13.000000
1303378.042383,-24.000000,-11.000000,6.000000,13.000000,8.000000,3.000000,13.000000,9.000000
1303378.044246,1.000000,3.000000,1.000000,-7.000000,-1.000000,-9.000000,1.000000,-1.000000
1303378.044257,-4.000000,-2.000000,-8.000000,-55.000000,-9.000000,2.000000,19.000000,2.000000
1303378.064747,-35.000000,-1.000000,36.000000,60.000000,21.000000,8.000000,-8.000000,-1.000000
1303378.064766,16.000000,-4.000000,-13.000000,-14.000000,-2.000000,4.000000,5.000000,-2.000000
1303378.094936,-1.000000,-2.000000,8.000000,-24.000000,-7.000000,-3.000000,-6.000000,9.000000
1303378.094949,-2.000000,2.000000,4.000000,5.000000,1.000000,-1.000000,-7.000000,-6.000000
1303378.102315,0.000000,1.000000,10.000000,30.000000,4.000000,0.000000,0.000000,-5.000000
1303378.102329,-9.000000,3.000000,-14.000000,23.000000,19.000000,0.000000,16.000000,-10.000000
1303378.117165,9.000000,-2.000000,25.000000,-22.000000,-9.000000,2.000000,9.000000,16.000000
1303378.117182,-10.000000,2.000000,-30.000000,-3.000000,2.000000,5.000000,12.000000,-5.000000
1303378.117573,7.000000,2.000000,14.000000,-17.000000,-5.000000,-7.000000,0.000000,3.000000
1303378.117584,-6.000000,2.000000,-27.000000,9.000000,-1.000000,-2.000000,0.000000,-9.000000
1303378.118656,6.000000,-7.000000,3.000000,-8.000000,-2.000000,-3.000000,16.000000,1.000000
1303378.118665,-16.000000,2.000000,10.000000,9.000000,-2.000000,-7.000000,-11.000000,-6.000000
1303378.119431,4.000000,3.000000,13.000000,-7.000000,-7.000000,0.000000,-21.000000,-16.000000
1303378.119449,2.000000,-12.000000,3.000000,-19.000000,-13.000000,-5.000000,6.000000,8.000000
1303378.139433,0.000000,-2.000000,4.000000,47.000000,10.000000,1.000000,14.000000,13.000000
1303378.139443,-6.000000,-2.000000,11.000000,-39.000000,-10.000000,-3.000000,-12.000000,-9.000000
1303378.139892,8.000000,1.000000,-25.000000,-39.000000,-15.000000,-1.000000,9.000000,10.000000
1303378.139899,2.000000,-1.000000,-5.000000,20.000000,-1.000000,-3.000000,-22.000000,-25.000000
1303378.147219,-34.000000,3.000000,-19.000000,-25.000000,-10.000000,-3.000000,13.000000,17.000000
1303378.147230,9.000000,-4.000000,-23.000000,-32.000000,4.000000,-2.000000,-17.000000,-4.000000
1303378.154458,-4.000000,1.000000,-19.000000,61.000000,18.000000,5.000000,36.000000,-6.000000
1303378.154468,15.000000,-7.000000,15.000000,13.000000,12.000000,12.000000,-1.000000,13.000000
1303378.162048,4.000000,-7.000000,11.000000,19.000000,-3.000000,2.000000,-13.000000,-16.000000
1303378.162099,-1.000000,2.000000,21.000000,12.000000,-2.000000,-6.000000,-16.000000,-8.000000
1303378.176918,5.000000,-3.000000,3.000000,10.000000,-5.000000,-5.000000,1.000000,2.000000
1303378.176928,-8.000000,-3.000000,2.000000,-47.000000,-7.000000,-3.000000,-14.000000,-10.000000
1303378.199789,16.000000,-3.000000,21.000000,-4.000000,4.000000,3.000000,21.000000,20.000000
1303378.199801,1.000000,-3.000000,-4.000000,-22.000000,-5.000000,0.000000,0.000000,2.000000
1303378.214445,-10.000000,-1.000000,-14.000000,-3.000000,3.000000,17.000000,-3.000000,-13.000000
1303378.214456,6.000000,5.000000,29.000000,-6.000000,-3.000000,-2.000000,7.000000,6.000000
1303378.237213,-8.000000,7.000000,-9.000000,-21.000000,-10.000000,-5.000000,2.000000,0.000000
1303378.237225,-4.000000,-4.000000,39.000000,44.000000,19.000000,1.000000,-28.000000,-22.000000
1303378.259465,9.000000,-6.000000,-10.000000,-30.000000,-10.000000,-1.000000,-7.000000,-1.000000
1303378.259481,4.000000,1.000000,5.000000,24.000000,3.000000,-2.000000,15.000000,14.000000
1303378.282333,-2.000000,2.000000,-27.000000,-16.000000,-7.000000,-1.000000,4.000000,-5.000000
1303378.282346,-6.000000,1.000000,-8.000000,13.000000,7.000000,6.000000,5.000000,4.000000
1303378.297300,-4.000000,-1.000000,-11.000000,-22.000000,-14.000000,-10.000000,-16.000000,-10.000000
1303378.297313,-1.000000,8.000000,26.000000,96.000000,21.000000,4.000000,-18.000000,-23.000000
1303378.334715,2.000000,0.000000,-9.000000,-105.000000,-27.000000,-7.000000,-6.000000,-12.000000
1303378.334726,0.000000,4.000000,13.000000,57.000000,23.000000,19.000000,45.000000,55.000000
1303378.342272,7.000000,-4.000000,37.000000,-19.000000,-20.000000,-9.000000,-11.000000,-21.000000
1303378.342284,-1.000000,-3.000000,-30.000000,-33.000000,-6.000000,-4.000000,5.000000,-7.000000
1303378.349656,25.000000,-3.000000,-4.000000,7.000000,2.000000,-5.000000,5.000000,3.000000
1303378.349667,-2.000000,0.000000,-40.000000,1.000000,4.000000,2.000000,-6.000000,-8.000000
1303378.357068,21.000000,-7.000000,28.000000,-1.000000,-5.000000,2.000000,7.000000,24.000000
1303378.357078,-7.000000,-4.000000,-39.000000,-37.000000,-10.000000,-11.000000,-7.000000,-4.000000
1303378.387147,2.000000,1.000000,18.000000,-27.000000,-11.000000,7.000000,0.000000,-2.000000
1303378.387160,-4.000000,-1.000000,-18.000000,-26.000000,-1.000000,-4.000000,2.000000,0.000000
1303378.394561,12.000000,-4.000000,-26.000000,-17.000000,-8.000000,4.000000,7.000000,19.000000
1303378.394583,3.000000,-5.000000,12.000000,37.000000,9.000000,0.000000,-12.000000,-13.000000
1303378.394901,11.000000,4.000000,19.000000,12.000000,7.000000,6.000000,-1.000000,-3.000000
1303378.394910,-17.000000,-2.000000,-9.000000,-24.000000,-1.000000,-2.000000,-15.000000,-20.000000
1303378.396126,6.000000,-2.000000,-5.000000,1.000000,-2.000000,3.000000,35.000000,13.000000
1303378.396134,11.000000,2.000000,-7.000000,-1.000000,-1.000000,4.000000,36.000000,41.000000
1303378.396823,-5.000000,4.000000,-6.000000,-4.000000,2.000000,-4.000000,-16.000000,-19.000000
1303378.396843,3.000000,-4.000000,1.000000,5.000000,5.000000,2.000000,-8.000000,-4.000000
1303378.397550,2.000000,-1.000000,13.000000,48.000000,0.000000,3.000000,12.000000,11.000000
1303378.397558,2.000000,1.000000,15.000000,-16.000000,-9.000000,-7.000000,-10.000000,-10.000000
1303378.417054,-11.000000,-4.000000,-7.000000,-8.000000,-7.000000,-5.000000,-6.000000,-7.000000
1303378.417066,0.000000,2.000000,12.000000,-3.000000,6.000000,5.000000,-4.000000,-3.000000
1303378.424817,2.000000,6.000000,-8.000000,45.000000,13.000000,4.000000,4.000000,5.000000
1303378.424829,3.000000,-3.000000,25.000000,-4.000000,7.000000,-2.000000,2.000000,-1.000000
1303378.439602,-2.000000,4.000000,-6.000000,-14.000000,-2.000000,1.000000,-3.000000,-2.000000
1303378.439614,1.000000,3.000000,45.000000,8.000000,-4.000000,-1.000000,0.000000,0.000000
1303378.454566,-8.000000,5.000000,-10.000000,14.000000,3.000000,-3.000000,-1.000000,4.000000
1303378.454578,10.000000,-4.000000,21.000000,-3.000000,4.000000,-4.000000,-2.000000,7.000000
1303378.493122,-18.000000,5.000000,-18.000000,22.000000,3.000000,3.000000,-17.000000,-12.000000
1303378.493383,1.000000,-1.000000,22.000000,-12.000000,-6.000000,-10.000000,12.000000,-1.000000
1303378.493754,-3.000000,-3.000000,-11.000000,-3.000000,2.000000,1.000000,-1.000000,2.000000
1303378.493775,2.000000,-2.000000,32.000000,20.000000,1.000000,8.000000,-1.000000,-9.000000
1303378.494540,8.000000,-5.000000,-23.000000,4.000000,7.000000,1.000000,24.000000,35.000000
1303378.494557,-8.000000,5.000000,-7.000000,-14.000000,0.000000,-6.000000,-12.000000,-1.000000
1303378.495086,-4.000000,-3.000000,-9.000000,-71.000000,-22.000000,-18.000000,-41.000000,-40.000000
1303378.495106,-4.000000,1.000000,2.000000,68.000000,23.000000,16.000000,10.000000,8.000000
1303378.496263,4.000000,-4.000000,29.000000,-33.000000,-12.000000,-4.000000,-10.000000,-6.000000
1303378.496281,-17.000000,-7.000000,4.000000,3.000000,-6.000000,2.000000,8.000000,-7.000000
1303378.515150,8.000000,-6.000000,28.000000,41.000000,14.000000,6.000000,7.000000,2.000000
1303378.515179,2.000000,-3.000000,-21.000000,-18.000000,1.000000,2.000000,2.000000,0.000000
1303378.515711,-8.000000,0.000000,7.000000,7.000000,-3.000000,-8.000000,-46.000000,-12.000000
1303378.515723,0.000000,-1.000000,15.000000,-1.000000,-3.000000,-10.000000,46.000000,5.000000
1303378.537130,11.000000,-1.000000,27.000000,23.000000,-3.000000,0.000000,-32.000000,0.000000
1303378.537146,-4.000000,4.000000,-66.000000,-44.000000,-7.000000,-6.000000,2.000000,-6.000000
1303378.552111,-6.000000,4.000000,6.000000,23.000000,4.000000,3.000000,7.000000,4.000000
1303378.552122,22.000000,0.000000,7.000000,-9.000000,2.000000,-1.000000,-7.000000,5.000000
1303378.574495,-22.000000,2.000000,15.000000,1.000000,-3.000000,-2.000000,-3.000000,-8.000000
1303378.574524,0.000000,-1.000000,-30.000000,-11.000000,-9.000000,-1.000000,2.000000,6.000000
1303378.611827,-10.000000,3.000000,9.000000,1.000000,3.000000,0.000000,-16.000000,-9.000000
1303378.611837,-8.000000,-5.000000,-9.000000,14.000000,-2.000000,-6.000000,-21.000000,-21.000000
1303378.613063,25.000000,7.000000,-10.000000,-26.000000,-4.000000,-6.000000,30.000000,28.000000
1303378.613073,-5.000000,1.000000,-40.000000,57.000000,12.000000,4.000000,0.000000,1.000000
1303378.613695,-2.000000,-3.000000,24.000000,-78.000000,-19.000000,-7.000000,-4.000000,-5.000000
1303378.613704,1.000000,-4.000000,23.000000,-8.000000,-3.000000,0.000000,-12.000000,-10.000000
1303378.614895,1.000000,0.000000,-37.000000,-33.000000,-7.000000,-2.000000,-14.000000,-8.000000
1303378.614904,-9.000000,-2.000000,16.000000,-4.000000,3.000000,3.000000,12.000000,1.000000
1303378.615767,-6.000000,-2.000000,-2.000000,-31.000000,-11.000000,1.000000,-6.000000,-1.000000
1303378.615794,17.000000,-6.000000,33.000000,7.000000,-1.000000,-5.000000,5.000000,4.000000
1303378.620261,6.000000,0.000000,-6.000000,-46.000000,-13.000000,-5.000000,-25.000000,-8.000000
1303378.620286,5.000000,0.000000,28.000000,22.000000,-2.000000,-2.000000,21.000000,14.000000
1303378.634680,4.000000,-1.000000,-16.000000,-25.000000,-7.000000,-4.000000,4.000000,9.000000
1303378.634691,-7.000000,4.000000,13.000000,-13.000000,-12.000000,-3.000000,-13.000000,-14.000000
1303378.635787,12.000000,-5.000000,6.000000,28.000000,6.000000,8.000000,22.000000,13.000000
1303378.635795,-14.000000,4.000000,-1.000000,-16.000000,-8.000000,-8.000000,-15.000000,-9.000000
1303378.649519,8.000000,-5.000000,38.000000,-7.000000,1.000000,3.000000,-8.000000,-9.000000
1303378.649529,0.000000,-1.000000,-26.000000,-14.000000,7.000000,-1.000000,16.000000,6.000000
1303378.672195,-6.000000,-6.000000,-24.000000,0.000000,-3.000000,1.000000,-5.000000,4.000000
1303378.672206,6.000000,4.000000,17.000000,-15.000000,0.000000,-3.000000,-15.000000,-12.000000
1303378.694639,-2.000000,-1.000000,3.000000,29.000000,7.000000,6.000000,23.000000,10.000000
1303378.694649,9.000000,-3.000000,-4.000000,-10.000000,-4.000000,-4.000000,-9.000000,4.000000
1303378.717288,-18.000000,-4.000000,-1.000000,11.000000,-2.000000,-1.000000,7.000000,4.000000
1303378.717300,-6.000000,-4.000000,-10.000000,-27.000000,-4.000000,-5.000000,-3.000000,-1.000000
1303378.732644,5.000000,-6.000000,8.000000,-38.000000,-15.000000,-8.000000,-10.000000,-9.000000
1303378.732768,-1.000000,1.000000,14.000000,99.000000,24.000000,8.000000,-10.000000,-10.000000
1303378.733523,5.000000,3.000000,-11.000000,-31.000000,-15.000000,-1.000000,24.000000,18.000000
1303378.733634,9.000000,4.000000,-14.000000,18.000000,3.000000,2.000000,0.000000,-2.000000
1303378.733868,-19.000000,1.000000,-1.000000,-10.000000,-1.000000,-6.000000,-15.000000,6.000000
1303378.733918,-9.000000,-6.000000,13.000000,2.000000,-4.000000,7.000000,20.000000,-12.000000
1303378.735437,18.000000,4.000000,-31.000000,-26.000000,-5.000000,1.000000,14.000000,18.000000
1303378.735449,-2.000000,8.000000,15.000000,42.000000,6.000000,8.000000,3.000000,10.000000
1303378.746869,-9.000000,-2.000000,0.000000,-84.000000,-13.000000,-11.000000,-17.000000,-21.000000
1303378.746900,0.000000,-2.000000,11.000000,42.000000,4.000000,-1.000000,-5.000000,-7.000000
1303378.754456,-20.000000,-3.000000,-4.000000,-20.000000,-7.000000,-5.000000,-4.000000,6.000000
1303378.754508,6.000000,7.000000,11.000000,-13.000000,0.000000,-5.000000,8.000000,-9.000000
1303378.755677,6.000000,-7.000000,-9.000000,62.000000,8.000000,2.000000,5.000000,6.000000
1303378.755685,4.000000,-3.000000,4.000000,-35.000000,0.000000,-5.000000,-12.000000,-3.000000
1303378.769650,4.000000,-5.000000,13.000000,18.000000,-2.000000,5.000000,12.000000,5.000000
1303378.769661,5.000000,4.000000,3.000000,-9.000000,-2.000000,-4.000000,8.000000,-4.000000
1303378.792022,-4.000000,-4.000000,-17.000000,-14.000000,-7.000000,-7.000000,-11.000000,-4.000000
1303378.792032,4.000000,-6.000000,26.000000,45.000000,18.000000,1.000000,-8.000000,-12.000000
1303378.829422,3.000000,1.000000,-17.000000,-25.000000,-22.000000,-4.000000,-6.000000,1.000000
1303378.829433,-5.000000,7.000000,15.000000,33.000000,20.000000,2.000000,28.000000,5.000000
1303378.830635,-5.000000,5.000000,6.000000,-26.000000,-4.000000,-6.000000,-17.000000,-10.000000
1303378.830681,-4.000000,0.000000,-14.000000,-13.000000,0.000000,0.000000,9.000000,5.000000
1303378.831192,4.000000,4.000000,8.000000,17.000000,2.000000,-6.000000,-8.000000,5.000000
1303378.831201,-4.000000,6.000000,-3.000000,-3.000000,-4.000000,2.000000,-6.000000,-6.000000
1303378.832520,-9.000000,1.000000,-7.000000,-28.000000,-8.000000,-4.000000,7.000000,-6.000000
1303378.832529,6.000000,-3.000000,8.000000,24.000000,5.000000,2.000000,-2.000000,-1.000000
1303378.833330,11.000000,3.000000,-28.000000,19.000000,-3.000000,3.000000,7.000000,5.000000
1303378.833340,-21.000000,-7.000000,-62.000000,-92.000000,-27.000000,-10.000000,-77.000000,-46.000000
1303378.837730,5.000000,-2.000000,-5.000000,124.000000,37.000000,12.000000,103.000000,35.000000
1303378.837738,-4.000000,-3.000000,7.000000,-14.000000,-1.000000,4.000000,2.000000,25.000000
1303378.851940,2.000000,7.000000,-8.000000,-8.000000,-9.000000,-3.000000,-15.000000,-10.000000
1303378.851969,-16.000000,-4.000000,-13.000000,-14.000000,-6.000000,-10.000000,-12.000000,-24.000000
1303378.889407,5.000000,3.000000,-9.000000,-21.000000,-13.000000,-12.000000,-15.000000,-15.000000
1303378.889418,-1.000000,0.000000,-23.000000,38.000000,13.000000,6.000000,0.000000,7.000000
1303378.896860,1.000000,3.000000,-16.000000,-10.000000,-10.000000,1.000000,15.000000,8.000000
1303378.896888,5.000000,-4.000000,6.000000,43.000000,12.000000,1.000000,3.000000,1.000000
1303378.912332,6.000000,0.000000,37.000000,4.000000,-8.000000,-1.000000,-3.000000,5.000000
1303378.912342,1.000000,-5.000000,7.000000,24.000000,1.000000,0.000000,-5.000000,-6.000000
1303378.927231,-7.000000,5.000000,-41.000000,-83.000000,-19.000000,-12.000000,-8.000000,-7.000000
1303378.927241,5.000000,-5.000000,35.000000,83.000000,27.000000,14.000000,17.000000,5.000000
1303378.941966,11.000000,3.000000,-43.000000,-40.000000,-5.000000,-2.000000,5.000000,0.000000
1303378.941976,-34.000000,-9.000000,-18.000000,-4.000000,4.000000,2.000000,-5.000000,-7.000000
1303378.949633,0.000000,2.000000,4.000000,-9.000000,0.000000,-5.000000,-14.000000,-15.000000
1303378.949644,-5.000000,-4.000000,6.000000,-1.000000,4.000000,3.000000,9.000000,18.000000
1303378.994905,0.000000,0.000000,19.000000,-7.000000,-4.000000,-7.000000,37.000000,18.000000
1303378.994938,3.000000,3.000000,-18.000000,-17.000000,-3.000000,-4.000000,-10.000000,-10.000000
1303378.995294,-5.000000,-2.000000,0.000000,-13.000000,-5.000000,5.000000,-14.000000,2.000000
1303378.995301,8.000000,7.000000,30.000000,-19.000000,-11.000000,-7.000000,-1.000000,-5.000000
1303378.995658,11.000000,-5.000000,-4.000000,-3.000000,0.000000,5.000000,20.000000,10.000000
1303378.995665,15.000000,-1.000000,-30.000000,37.000000,11.000000,-6.000000,-6.000000,-2.000000
1303378.996841,-27.000000,-3.000000,10.000000,-17.000000,-2.000000,1.000000,-53.000000,-18.000000
1303378.996850,0.000000,-4.000000,-61.000000,-19.000000,-6.000000,-1.000000,44.000000,9.000000
1303378.997528,13.000000,-1.000000,32.000000,-17.000000,-15.000000,-5.000000,-3.000000,12.000000
1303378.997536,-1.000000,1.000000,3.000000,2.000000,8.000000,-1.000000,-9.000000,-4.000000
1303378.998389,18.000000,-5.000000,-37.000000,-35.000000,-11.000000,-2.000000,20.000000,29.000000
1303378.998398,16.000000,-3.000000,37.000000,51.000000,13.000000,14.000000,27.000000,19.000000
1303379.009784,12.000000,-5.000000,3.000000,-21.000000,-13.000000,-6.000000,2.000000,5.000000
1303379.009795,-12.000000,4.000000,-21.000000,-7.000000,-7.000000,-6.000000,-3.000000,-4.000000
1303379.047259,-8.000000,5.000000,31.000000,34.000000,7.000000,4.000000,-12.000000,10.000000
1303379.047270,3.000000,3.000000,-18.000000,-13.000000,3.000000,-2.000000,-3.000000,-13.000000
1303379.054611,0.000000,-6.000000,-2.000000,7.000000,-6.000000,-1.000000,0.000000,-3.000000
1303379.054623,-11.000000,-2.000000,-6.000000,-17.000000,-9.000000,1.000000,6.000000,3.000000
1303379.092168,8.000000,-1.000000,6.000000,12.000000,7.000000,0.000000,-3.000000,3.000000
1303379.092180,-3.000000,9.000000,16.000000,-2.000000,-7.000000,-4.000000,-5.000000,-8.000000
1303379.092620,-9.000000,0.000000,-15.000000,0.000000,0.000000,3.000000,3.000000,7.000000
1303379.092628,1.000000,2.000000,4.000000,-4.000000,-2.000000,-5.000000,-24.000000,-12.000000
1303379.093602,5.000000,-9.000000,-17.000000,6.000000,0.000000,4.000000,44.000000,17.000000
1303379.093679,-25.000000,3.000000,4.000000,-30.000000,-16.000000,-4.000000,-6.000000,-7.000000
1303379.094297,8.000000,3.000000,-4.000000,15.000000,8.000000,4.000000,-4.000000,-2.000000
1303379.094304,1.000000,0.000000,3.000000,2.000000,0.000000,-10.000000,-13.000000,-3.000000
1303379.096229,-7.000000,-4.000000,5.000000,-27.000000,-14.000000,-5.000000,-9.000000,0.000000
1303379.096240,-31.000000,2.000000,-3.000000,-12.000000,-9.000000,-10.000000,-8.000000,-14.000000
1303379.114414,33.000000,2.000000,37.000000,35.000000,8.000000,1.000000,6.000000,4.000000
1303379.114431,-25.000000,0.000000,-15.000000,-26.000000,-5.000000,-3.000000,-4.000000,5.000000
1303379.114918,-1.000000,4.000000,4.000000,-22.000000,-8.000000,-1.000000,-12.000000,-14.000000
1303379.114931,-8.000000,-2.000000,-7.000000,-19.000000,-7.000000,-3.000000,5.000000,1.000000
1303379.116351,0.000000,0.000000,7.000000,-9.000000,-11.000000,-4.000000,-5.000000,-4.000000
1303379.116361,-1.000000,-4.000000,0.000000,13.000000,1.000000,-1.000000,-6.000000,-7.000000
1303379.129420,-1.000000,2.000000,36.000000,6.000000,10.000000,2.000000,3.000000,-1.000000
1303379.129449,-5.000000,1.000000,-13.000000,-10.000000,-4.000000,-4.000000,-3.000000,3.000000
1303379.159641,4.000000,-6.000000,-2.000000,-2.000000,-4.000000,-2.000000,-11.000000,-3.000000
1303379.159653,-8.000000,2.000000,16.000000,-12.000000,2.000000,0.000000,-1.000000,-5.000000
1303379.167061,-1.000000,-3.000000,-15.000000,25.000000,4.000000,1.000000,5.000000,16.000000
1303379.167104,-3.000000,4.000000,-11.000000,-15.000000,-8.000000,-1.000000,-12.000000,-7.000000
1303379.182298,8.000000,-2.000000,-25.000000,-80.000000,-22.000000,-10.000000,-21.000000,-19.000000
1303379.182308,13.000000,1.000000,4.000000,85.000000,31.000000,8.000000,28.000000,26.000000
1303379.189745,-7.000000,2.000000,-37.000000,28.000000,9.000000,10.000000,25.000000,13.000000
1303379.189756,0.000000,4.000000,13.000000,-16.000000,-12.000000,-8.000000,-32.000000,-8.000000
1303379.204964,-15.000000,-10.000000,-18.000000,-3.000000,-6.000000,-7.000000,22.000000,-14.000000
1303379.204979,-4.000000,-2.000000,3.000000,4.000000,1.000000,0.000000,-14.000000,-8.000000
1303379.205502,-2.000000,-1.000000,-17.000000,-13.000000,-4.000000,-4.000000,5.000000,-2.000000
1303379.205510,3.000000,1.000000,22.000000,30.000000,10.000000,1.000000,-6.000000,-6.000000
1303379.206774,-9.000000,5.000000,-3.000000,-46.000000,-18.000000,-6.000000,-7.000000,-8.000000
1303379.206783,-8.000000,8.000000,-6.000000,10.000000,5.000000,-1.000000,1.000000,-5.000000
1303379.207672,6.000000,-3.000000,-1.000000,10.000000,0.000000,-4.000000,-3.000000,2.000000
1303379.207680,-10.000000,-2.000000,-5.000000,-3.000000,-1.000000,-1.000000,-5.000000,0.000000
1303379.227494,3.000000,1.000000,13.000000,-11.000000,-9.000000,1.000000,0.000000,-4.000000
1303379.227503,-4.000000,-2.000000,-3.000000,-34.000000,-2.000000,-4.000000,2.000000,1.000000
1303379.228257,7.000000,3.000000,4.000000,25.000000,7.000000,6.000000,-2.000000,0.000000
1303379.228264,2.000000,5.000000,0.000000,-7.000000,1.000000,2.000000,0.000000,14.000000
1303379.302079,-4.000000,-6.000000,-12.000000,8.000000,-6.000000,-6.000000,19.000000,-6.000000
1303379.302111,16.000000,-1.000000,-5.000000,-3.000000,5.000000,-5.000000,0.000000,10.000000
1303379.302536,-7.000000,6.000000,1.000000,4.000000,-3.000000,0.000000,-11.000000,-10.000000
1303379.302596,-7.000000,8.000000,-4.000000,-14.000000,-8.000000,-11.000000,-15.000000,-17.000000
1303379.309882,-1.000000,0.000000,-20.000000,-24.000000,-4.000000,-4.000000,-19.000000,-11.000000
1303379.309929,-6.000000,-9.000000,16.000000,64.000000,18.000000,3.000000,21.000000,16.000000
1303379.310473,3.000000,3.000000,5.000000,-19.000000,-13.000000,0.000000,2.000000,0.000000
1303379.310481,9.000000,4.000000,-10.000000,-33.000000,-10.000000,-1.000000,-6.000000,-3.000000
1303379.312093,6.000000,5.000000,29.000000,25.000000,-1.000000,1.000000,6.000000,6.000000
1303379.312130,-11.000000,7.000000,-47.000000,-29.000000,-12.000000,-6.000000,-7.000000,-7.000000
1303379.325144,7.000000,4.000000,-10.000000,-7.000000,-5.000000,1.000000,1.000000,-4.000000
1303379.325156,-8.000000,3.000000,-10.000000,-10.000000,1.000000,3.000000,11.000000,6.000000
1303379.325831,6.000000,0.000000,16.000000,4.000000,-12.000000,-13.000000,-15.000000,-4.000000
1303379.325838,10.000000,-5.000000,-26.000000,-57.000000,-7.000000,-9.000000,-11.000000,-5.000000
1303379.340152,-8.000000,-1.000000,-15.000000,17.000000,3.000000,7.000000,10.000000,2.000000
1303379.340161,-20.000000,-2.000000,0.000000,4.000000,-8.000000,-4.000000,-11.000000,-7.000000
1303379.347115,12.000000,-1.000000,21.000000,39.000000,5.000000,5.000000,11.000000,10.000000
1303379.347146,-1.000000,-5.000000,0.000000,-9.000000,6.000000,9.000000,5.000000,4.000000
1303379.384901,-2.000000,7.000000,35.000000,-10.000000,-7.000000,-5.000000,0.000000,-3.000000
1303379.384917,-1.000000,-6.000000,31.000000,-11.000000,-4.000000,-3.000000,2.000000,6.000000
1303379.392158,1.000000,1.000000,-7.000000,-33.000000,-7.000000,-5.000000,-6.000000,-6.000000
1303379.392170,-11.000000,2.000000,-12.000000,16.000000,10.000000,6.000000,-5.000000,-10.000000
1303379.429818,-11.000000,-3.000000,10.000000,3.000000,-6.000000,0.000000,10.000000,10.000000
1303379.429827,8.000000,2.000000,12.000000,-4.000000,-6.000000,1.000000,11.000000,5.000000
1303379.430156,-11.000000,7.000000,-9.000000,-18.000000,-6.000000,3.000000,-7.000000,1.000000
1303379.430161,-15.000000,-1.000000,9.000000,-8.000000,-2.000000,-3.000000,-13.000000,-14.000000
1303379.431202,-3.000000,-10.000000,-14.000000,-7.000000,-7.000000,-3.000000,3.000000,-9.000000
1303379.431215,-5.000000,5.000000,-8.000000,4.000000,12.000000,1.000000,4.000000,6.000000
1303379.431888,3.000000,-4.000000,16.000000,-19.000000,-7.000000,-1.000000,-6.000000,2.000000
1303379.431897,8.000000,-1.000000,-24.000000,5.000000,8.000000,5.000000,-7.000000,-8.000000
1303379.433415,-15.000000,-5.000000,35.000000,-4.000000,-3.000000,4.000000,2.000000,9.000000
1303379.433425,0.000000,-2.000000,20.000000,58.000000,11.000000,-2.000000,13.000000,-1.000000
1303379.444826,-4.000000,-3.000000,-45.000000,-8.000000,-11.000000,-8.000000,-15.000000,-15.000000
1303379.444854,-1.000000,-1.000000,-6.000000,24.000000,-2.000000,1.000000,-9.000000,-4.000000
1303379.445810,3.000000,-5.000000,17.000000,43.000000,16.000000,2.000000,12.000000,8.000000
1303379.445828,-21.000000,-3.000000,7.000000,-43.000000,-18.000000,-8.000000,-7.000000,-10.000000
1303379.467065,4.000000,-8.000000,0.000000,43.000000,5.000000,-2.000000,-14.000000,-2.000000
1303379.467080,-7.000000,0.000000,-7.000000,-9.000000,8.000000,2.000000,-4.000000,-17.000000
1303379.467736,14.000000,-2.000000,0.000000,-10.000000,-8.000000,-5.000000,10.000000,13.000000
1303379.467744,8.000000,-3.000000,13.000000,0.000000,-6.000000,-9.000000,-5.000000,3.000000
1303379.504616,4.000000,-8.000000,-27.000000,56.000000,22.000000,8.000000,-36.000000,-15.000000
1303379.504648,-23.000000,-17.000000,22.000000,-23.000000,-6.000000,-5.000000,26.000000,0.000000
1303379.527114,9.000000,-2.000000,-22.000000,-6.000000,4.000000,1.000000,-3.000000,18.000000
1303379.527124,3.000000,-4.000000,24.000000,22.000000,-1.000000,-6.000000,-18.000000,-20.000000
1303379.549448,4.000000,8.000000,-23.000000,-26.000000,-1.000000,4.000000,8.000000,-5.000000
1303379.549458,15.000000,-2.000000,-23.000000,24.000000,-4.000000,1.000000,4.000000,3.000000
1303379.564741,-33.000000,-2.000000,-13.000000,-28.000000,-7.000000,-4.000000,8.000000,4.000000
1303379.564752,10.000000,-3.000000,22.000000,16.000000,-1.000000,0.000000,-21.000000,-15.000000
1303379.587246,2.000000,2.000000,-13.000000,-24.000000,-6.000000,-7.000000,29.000000,18.000000
1303379.587262,4.000000,-3.000000,38.000000,-11.000000,-6.000000,0.000000,-5.000000,3.000000
1303379.602301,9.000000,2.000000,7.000000,-16.000000,-3.000000,-8.000000,-13.000000,-8.000000
1303379.602333,-4.000000,0.000000,13.000000,9.000000,-3.000000,0.000000,-14.000000,-13.000000
1303379.602784,12.000000,-15.000000,9.000000,-12.000000,-1.000000,-5.000000,-20.000000,-7.000000
1303379.602814,-23.000000,-2.000000,3.000000,38.000000,23.000000,4.000000,6.000000,8.000000
1303379.604096,10.000000,-3.000000,3.000000,4.000000,2.000000,-4.000000,-8.000000,-5.000000
1303379.604123,5.000000,-5.000000,30.000000,0.000000,-7.000000,0.000000,3.000000,-7.000000
1303379.609714,2.000000,-3.000000,23.000000,37.000000,1.000000,0.000000,-3.000000,-4.000000
1303379.609725,-7.000000,-1.000000,-17.000000,-23.000000,-4.000000,-3.000000,1.000000,0.000000
1303379.624878,3.000000,-5.000000,-4.000000,12.000000,-4.000000,-1.000000,-14.000000,-8.000000
1303379.624887,6.000000,-1.000000,30.000000,-3.000000,1.000000,-1.000000,-3.000000,3.000000
1303379.625686,11.000000,-1.000000,-5.000000,73.000000,32.000000,11.000000,5.000000,0.000000
1303379.625698,-12.000000,-4.000000,-6.000000,-12.000000,-11.000000,-6.000000,-2.000000,-10.000000
1303379.648690,5.000000,5.000000,1.000000,-21.000000,-4.000000,6.000000,14.000000,2.000000
1303379.648711,6.000000,-6.000000,21.000000,19.000000,7.000000,12.000000,14.000000,24.000000
1303379.649306,-7.000000,-7.000000,1.000000,-36.000000,-6.000000,1.000000,-13.000000,-15.000000
1303379.649325,-9.000000,-2.000000,-14.000000,9.000000,1.000000,-2.000000,-11.000000,-7.000000
1303379.662663,26.000000,0.000000,19.000000,67.000000,21.000000,10.000000,33.000000,33.000000
1303379.662687,-4.000000,-8.000000,-41.000000,-24.000000,-9.000000,-3.000000,-7.000000,-12.000000
1303379.670148,-10.000000,1.000000,-14.000000,-10.000000,-5.000000,-4.000000,-1.000000,-10.000000
1303379.670170,-3.000000,-2.000000,9.000000,8.000000,-2.000000,1.000000,-11.000000,-6.000000
1303379.686207,-1.000000,0.000000,-8.000000,-14.000000,3.000000,7.000000,5.000000,4.000000
1303379.686235,-1.000000,-2.000000,-6.000000,-27.000000,-10.000000,-4.000000,-8.000000,-4.000000
1303379.692977,5.000000,0.000000,13.000000,46.000000,7.000000,4.000000,1.000000,0.000000
1303379.693003,-1.000000,-1.000000,49.000000,-7.000000,-9.000000,-1.000000,2.000000,-6.000000
1303379.715392,0.000000,6.000000,-1.000000,-11.000000,-5.000000,6.000000,13.000000,8.000000
1303379.715417,5.000000,-7.000000,2.000000,11.000000,4.000000,2.000000,-8.000000,-9.000000
1303379.722111,-13.000000,1.000000,-31.000000,-23.000000,3.000000,-4.000000,-9.000000,-3.000000
1303379.722130,-7.000000,0.000000,-8.000000,37.000000,18.000000,1.000000,-22.000000,-8.000000
1303379.744862,17.000000,8.000000,7.000000,-4.000000,4.000000,4.000000,25.000000,-8.000000
1303379.744876,-9.000000,-5.000000,-6.000000,-20.000000,-10.000000,-1.000000,18.000000,30.000000
1303379.759472,1.000000,-1.000000,5.000000,20.000000,3.000000,-4.000000,-11.000000,9.000000
1303379.759494,5.000000,-5.000000,-10.000000,31.000000,-3.000000,2.000000,2.000000,-8.000000
1303379.760454,-23.000000,2.000000,16.000000,-19.000000,-9.000000,-6.000000,-16.000000,-19.000000
1303379.760463,-2.000000,2.000000,-28.000000,-6.000000,1.000000,3.000000,-45.000000,-19.000000
1303379.761031,17.000000,2.000000,27.000000,-2.000000,0.000000,-5.000000,57.000000,19.000000
1303379.761040,-1.000000,2.000000,6.000000,10.000000,3.000000,-2.000000,-7.000000,13.000000
1303379.762692,-6.000000,-3.000000,1.000000,-20.000000,-11.000000,-10.000000,-14.000000,-10.000000
1303379.762710,-5.000000,-1.000000,19.000000,36.000000,11.000000,1.000000,-10.000000,-9.000000
1303379.766966,0.000000,10.000000,-26.000000,15.000000,-4.000000,-6.000000,-9.000000,-4.000000
1303379.766995,1.000000,-6.000000,1.000000,4.000000,5.000000,-1.000000,3.000000,-4.000000
1303379.782705,-5.000000,1.000000,-19.000000,-28.000000,-13.000000,-12.000000,-17.000000,-7.000000
1303379.782713,-2.000000,4.000000,21.000000,9.000000,16.000000,1.000000,17.000000,4.000000
1303379.804552,-8.000000,3.000000,0.000000,-7.000000,-3.000000,5.000000,-1.000000,5.000000
1303379.804562,12.000000,7.000000,-87.000000,-16.000000,-1.000000,3.000000,-4.000000,0.000000
1303379.842234,-12.000000,7.000000,24.000000,21.000000,19.000000,5.000000,-2.000000,-11.000000
1303379.842245,-6.000000,1.000000,-13.000000,-21.000000,-6.000000,4.000000,-16.000000,-3.000000
1303379.849794,11.000000,-1.000000,28.000000,-22.000000,-12.000000,-3.000000,8.000000,10.000000
1303379.849804,16.000000,-4.000000,0.000000,12.000000,-13.000000,7.000000,7.000000,5.000000
1303379.864552,-24.000000,1.000000,18.000000,-9.000000,-7.000000,-7.000000,-3.000000,4.000000
1303379.864569,8.000000,-6.000000,-39.000000,-16.000000,1.000000,-1.000000,-6.000000,-1.000000
1303379.879732,-3.000000,2.000000,13.000000,-4.000000,15.000000,3.000000,-10.000000,-10.000000
1303379.879746,10.000000,1.000000,13.000000,7.000000,-7.000000,-6.000000,-1.000000,-10.000000
1303379.880604,3.000000,0.000000,-1.000000,-19.000000,-1.000000,2.000000,16.000000,19.000000
1303379.880614,-3.000000,-5.000000,-11.000000,2.000000,-7.000000,-4.000000,-8.000000,-8.000000
1303379.881858,-2.000000,-2.000000,6.000000,16.000000,2.000000,0.000000,1.000000,3.000000
1303379.881868,12.000000,4.000000,6.000000,-15.000000,-3.000000,-2.000000,-11.000000,-6.000000
1303379.883796,-18.000000,1.000000,-76.000000,-21.000000,2.000000,0.000000,11.000000,9.000000
1303379.883809,9.000000,3.000000,7.000000,-6.000000,-5.000000,-3.000000,-9.000000,3.000000
1303379.887080,-12.000000,-7.000000,-15.000000,29.000000,6.000000,2.000000,7.000000,-5.000000
1303379.887092,-24.000000,4.000000,-6.000000,-23.000000,-6.000000,-7.000000,-15.000000,-12.000000
1303379.902855,-2.000000,2.000000,-7.000000,-12.000000,-3.000000,0.000000,27.000000,8.000000
1303379.902871,4.000000,-3.000000,8.000000,-12.000000,-4.000000,-6.000000,-4.000000,6.000000
1303379.924378,-13.000000,-7.000000,-35.000000,30.000000,-1.000000,-1.000000,-10.000000,-9.000000
1303379.924388,4.000000,-3.000000,4.000000,-10.000000,-5.000000,-2.000000,-3.000000,-1.000000
1303379.926003,9.000000,3.000000,-4.000000,-30.000000,-13.000000,-3.000000,-3.000000,-3.000000
1303379.926013,-8.000000,3.000000,1.000000,-10.000000,7.000000,4.000000,0.000000,-2.000000
1303379.939747,34.000000,-9.000000,16.000000,-22.000000,9.000000,-5.000000,-5.000000,6.000000
1303379.939758,-17.000000,2.000000,-20.000000,10.000000,8.000000,-5.000000,0.000000,3.000000
1303379.962235,4.000000,1.000000,-3.000000,-5.000000,0.000000,3.000000,16.000000,5.000000
1303379.962272,-1.000000,-4.000000,-10.000000,-10.000000,-10.000000,-5.000000,-15.000000,-7.000000
1303379.984440,-15.000000,0.000000,-53.000000,-20.000000,-3.000000,-1.000000,-7.000000,-9.000000
1303379.984452,5.000000,-1.000000,-2.000000,-2.000000,0.000000,-1.000000,-13.000000,-5.000000
1303379.985744,-1.000000,-4.000000,3.000000,-5.000000,-3.000000,1.000000,13.000000,1.000000
1303379.985759,-6.000000,-6.000000,-14.000000,-6.000000,8.000000,5.000000,15.000000,21.000000
1303379.986600,15.000000,-2.000000,-6.000000,37.000000,5.000000,1.000000,-6.000000,-5.000000
1303379.986610,1.000000,0.000000,-15.000000,-23.000000,-16.000000,-8.000000,-1.000000,6.000000
1303379.987771,-5.000000,-4.000000,25.000000,74.000000,-6.000000,-7.000000,-3.000000,-8.000000
1303379.987781,-2.000000,-13.000000,-42.000000,25.000000,5.000000,9.000000,27.000000,3.000000
1303379.999426,-15.000000,-2.000000,45.000000,-64.000000,-9.000000,-4.000000,-5.000000,10.000000
1303379.999445,-9.000000,7.000000,-22.000000,4.000000,12.000000,4.000000,-1.000000,-13.000000
1303380.000817,10.000000,-1.000000,41.000000,50.000000,9.000000,11.000000,19.000000,15.000000
1303380.000836,-2.000000,-11.000000,0.000000,3.000000,3.000000,-1.000000,11.000000,15.000000
1303380.007004,4.000000,-6.000000,37.000000,15.000000,16.000000,6.000000,-13.000000,-11.000000
1303380.007014,6.000000,2.000000,-38.000000,-55.000000,-15.000000,-11.000000,-8.000000,-6.000000
1303380.022566,-4.000000,5.000000,0.000000,15.000000,-17.000000,-9.000000,5.000000,1.000000
1303380.022594,-13.000000,-6.000000,-3.000000,36.000000,38.000000,10.000000,-2.000000,-6.000000
1303380.036957,17.000000,-4.000000,-22.000000,-12.000000,-9.000000,-3.000000,-1.000000,0.000000
1303380.036986,-10.000000,-2.000000,-1.000000,-23.000000,-8.000000,-4.000000,0.000000,-7.000000
1303380.038299,14.000000,-4.000000,1.000000,4.000000,0.000000,-2.000000,0.000000,-6.000000
1303380.038308,-20.000000,3.000000,29.000000,7.000000,-2.000000,4.000000,25.000000,23.000000
1303380.059839,12.000000,2.000000,26.000000,-19.000000,-5.000000,1.000000,-3.000000,4.000000
1303380.059878,-2.000000,-5.000000,1.000000,14.000000,3.000000,-1.000000,7.000000,-7.000000
1303380.097257,7.000000,3.000000,27.000000,14.000000,-3.000000,-13.000000,-25.000000,-5.000000
1303380.097305,-11.000000,4.000000,-7.000000,31.000000,-1.000000,6.000000,-1.000000,3.000000
1303380.097638,12.000000,-6.000000,18.000000,20.000000,4.000000,0.000000,2.000000,-5.000000
1303380.097647,-5.000000,2.000000,-5.000000,-43.000000,-8.000000,-5.000000,-2.000000,0.000000
1303380.098864,-8.000000,5.000000,6.000000,-11.000000,-5.000000,-1.000000,-1.000000,-1.000000
1303380.098880,-6.000000,4.000000,-22.000000,29.000000,11.000000,3.000000,-8.000000,-14.000000
1303380.099559,7.000000,9.000000,26.000000,2.000000,-3.000000,-10.000000,16.000000,11.000000
1303380.099571,-17.000000,-11.000000,-32.000000,-37.000000,-10.000000,-8.000000,-17.000000,-9.000000
1303380.100991,-16.000000,8.000000,-15.000000,56.000000,20.000000,5.000000,-10.000000,-11.000000
1303380.101030,13.000000,-7.000000,0.000000,-28.000000,-11.000000,-10.000000,13.000000,16.000000
1303380.119790,-1.000000,-4.000000,44.000000,0.000000,0.000000,-4.000000,1.000000,-1.000000
1303380.119822,-4.000000,-4.000000,-18.000000,7.000000,-3.000000,1.000000,-4.000000,-4.000000
1303380.120914,1.000000,-2.000000,-16.000000,-2.000000,-7.000000,-6.000000,-9.000000,-2.000000
1303380.120941,12.000000,-4.000000,20.000000,-23.000000,1.000000,2.000000,26.000000,18.000000
1303380.142150,-36.000000,-3.000000,14.000000,19.000000,3.000000,7.000000,-12.000000,-9.000000
1303380.142162,11.000000,3.000000,11.000000,-24.000000,-6.000000,0.000000,-10.000000,-9.000000
1303380.143124,-10.000000,-1.000000,14.000000,3.000000,-10.000000,-7.000000,-3.000000,-8.000000
1303380.143133,3.000000,-6.000000,-40.000000,-28.000000,-15.000000,-7.000000,-4.000000,-1.000000
1303380.157004,-32.000000,0.000000,-9.000000,-15.000000,8.000000,2.000000,-9.000000,-18.000000
1303380.157032,12.000000,-5.000000,21.000000,5.000000,-13.000000,-7.000000,6.000000,7.000000
1303380.179519,1.000000,-2.000000,1.000000,-16.000000,-2.000000,-1.000000,-8.000000,2.000000
1303380.179529,3.000000,-5.000000,-27.000000,2.000000,-11.000000,-7.000000,-9.000000,-1.000000
1303380.202178,6.000000,-3.000000,5.000000,-32.000000,-14.000000,-10.000000,-17.000000,-6.000000
1303380.202194,4.000000,-3.000000,34.000000,73.000000,9.000000,0.000000,15.000000,0.000000
1303380.217310,-9.000000,-1.000000,1.000000,3.000000,-1.000000,1.000000,-5.000000,1.000000
1303380.217323,0.000000,0.000000,-20.000000,-44.000000,-6.000000,-8.000000,-11.000000,-4.000000
1303380.224555,-21.000000,-12.000000,-50.000000,-23.000000,-5.000000,0.000000,1.000000,-3.000000
1303380.224567,11.000000,-7.000000,38.000000,85.000000,41.000000,18.000000,12.000000,9.000000
1303380.246963,5.000000,2.000000,-19.000000,-14.000000,-4.000000,-9.000000,-4.000000,-5.000000
1303380.246991,1.000000,3.000000,-8.000000,-26.000000,-8.000000,-6.000000,-27.000000,-16.000000
1303380.254811,3.000000,2.000000,19.000000,14.000000,11.000000,-4.000000,5.000000,-9.000000
1303380.254823,-5.000000,-2.000000,-13.000000,-9.000000,-4.000000,8.000000,12.000000,23.000000
1303380.277066,-13.000000,4.000000,-38.000000,-33.000000,-6.000000,2.000000,-12.000000,-20.000000
1303380.277077,4.000000,-3.000000,30.000000,28.000000,-7.000000,-4.000000,-3.000000,-8.000000
1303380.284864,2.000000,2.000000,7.000000,-2.000000,2.000000,6.000000,5.000000,9.000000
1303380.284882,11.000000,7.000000,-30.000000,0.000000,-4.000000,-1.000000,3.000000,2.000000
1303380.286173,-16.000000,-1.000000,17.000000,8.000000,20.000000,4.000000,-5.000000,-7.000000
1303380.286182,4.000000,3.000000,-35.000000,21.000000,16.000000,5.000000,-15.000000,-5.000000
1303380.286692,-3.000000,3.000000,-12.000000,-15.000000,-2.000000,1.000000,19.000000,-4.000000
1303380.286700,-15.000000,0.000000,-8.000000,-32.000000,-7.000000,-4.000000,7.000000,1.000000
1303380.299717,-27.000000,-12.000000,-29.000000,-9.000000,-5.000000,-5.000000,-20.000000,-10.000000
1303380.299728,1.000000,3.000000,9.000000,-19.000000,-10.000000,1.000000,-14.000000,-14.000000
1303380.322045,-1.000000,-3.000000,3.000000,-19.000000,-12.000000,-6.000000,-1.000000,-7.000000
1303380.322056,-1.000000,2.000000,10.000000,25.000000,7.000000,-1.000000,-5.000000,2.000000
1303380.337150,21.000000,-4.000000,24.000000,39.000000,-2.000000,5.000000,34.000000,36.000000
1303380.337167,-2.000000,4.000000,-13.000000,-26.000000,-6.000000,-5.000000,-15.000000,-7.000000
1303380.359723,-10.000000,-3.000000,-1.000000,-14.000000,-5.000000,-9.000000,-23.000000,-25.000000
1303380.359735,1.000000,-3.000000,-11.000000,-1.000000,3.000000,8.000000,26.000000,10.000000
1303380.360137,-2.000000,1.000000,54.000000,-9.000000,-6.000000,4.000000,19.000000,18.000000
1303380.360146,3.000000,-7.000000,-97.000000,8.000000,9.000000,-3.000000,-17.000000,-7.000000
1303380.361107,-47.000000,5.000000,-3.000000,4.000000,2.000000,-1.000000,5.000000,-7.000000
1303380.361116,5.000000,4.000000,2.000000,-26.000000,-11.000000,-4.000000,0.000000,-2.000000
1303380.361745,17.000000,-1.000000,13.000000,-49.000000,-16.000000,-7.000000,-8.000000,-5.000000
1303380.361753,1.000000,-2.000000,-5.000000,43.000000,25.000000,8.000000,4.000000,2.000000
1303380.363321,4.000000,1.000000,-11.000000,-21.000000,-4.000000,1.000000,-6.000000,1.000000
1303380.363330,3.000000,3.000000,6.000000,-14.000000,-4.000000,5.000000,10.000000,5.000000
1303380.366901,8.000000,-4.000000,27.000000,15.000000,5.000000,-1.000000,13.000000,1.000000
1303380.366911,-11.000000,3.000000,-47.000000,-12.000000,8.000000,5.000000,2.000000,5.000000
1303380.382127,-29.000000,1.000000,-23.000000,-26.000000,-10.000000,-6.000000,-11.000000,-8.000000
1303380.382137,15.000000,-11.000000,15.000000,-15.000000,-1.000000,-4.000000,-9.000000,-7.000000
1303380.396982,-14.000000,2.000000,9.000000,33.000000,5.000000,2.000000,9.000000,3.000000
1303380.397016,13.000000,-6.000000,7.000000,-2.000000,2.000000,-3.000000,-7.000000,6.000000
1303380.398175,6.000000,3.000000,15.000000,1.000000,-4.000000,5.000000,11.000000,7.000000
1303380.398183,6.000000,-6.000000,-27.000000,-5.000000,11.000000,9.000000,0.000000,3.000000
1303380.419701,7.000000,-1.000000,9.000000,12.000000,-10.000000,-4.000000,-8.000000,1.000000
1303380.419722,-11.000000,-5.000000,12.000000,42.000000,15.000000,0.000000,-7.000000,-12.000000
1303380.442207,-4.000000,4.000000,-3.000000,-23.000000,-8.000000,-2.000000,7.000000,0.000000
1303380.442217,-5.000000,7.000000,-18.000000,-19.000000,-6.000000,-6.000000,-8.000000,-1.000000
1303380.457247,-19.000000,-3.000000,12.000000,12.000000,-7.000000,0.000000,-4.000000,2.000000
1303380.457258,6.000000,-7.000000,-3.000000,34.000000,10.000000,1.000000,-6.000000,-11.000000
1303380.487199,4.000000,-3.000000,-24.000000,-18.000000,-8.000000,-7.000000,-6.000000,2.000000
1303380.487210,5.000000,1.000000,20.000000,4.000000,9.000000,9.000000,-29.000000,2.000000
1303380.494626,-12.000000,1.000000,-16.000000,-10.000000,-4.000000,1.000000,61.000000,20.000000
1303380.494638,3.000000,2.000000,5.000000,-6.000000,3.000000,-8.000000,-13.000000,-7.000000
1303380.495531,-8.000000,6.000000,8.000000,-20.000000,-12.000000,-5.000000,-21.000000,-9.000000
1303380.495539,-6.000000,1.000000,8.000000,-44.000000,-17.000000,-11.000000,-12.000000,-7.000000
1303380.496140,-15.000000,1.000000,-16.000000,57.000000,12.000000,4.000000,22.000000,6.000000
1303380.496147,0.000000,-3.000000,12.000000,-19.000000,-8.000000,-2.000000,-12.000000,-6.000000
1303380.496772,-10.000000,-3.000000,-10.000000,-11.000000,-10.000000,-10.000000,-16.000000,-15.000000
1303380.496780,4.000000,0.000000,5.000000,7.000000,9.000000,5.000000,30.000000,13.000000
1303380.502114,6.000000,-4.000000,11.000000,-15.000000,-10.000000,-10.000000,2.000000,0.000000
1303380.502126,-10.000000,5.000000,-4.000000,-21.000000,-10.000000,-7.000000,-3.000000,-2.000000
1303380.509628,-2.000000,-3.000000,5.000000,-23.000000,-8.000000,2.000000,-9.000000,-6.000000
1303380.509640,1.000000,-1.000000,24.000000,-3.000000,3.000000,3.000000,-1.000000,5.000000
1303380.517748,3.000000,-3.000000,16.000000,-12.000000,-1.000000,-3.000000,-7.000000,-4.000000
1303380.517758,3.000000,-1.000000,12.000000,6.000000,-3.000000,-12.000000,-14.000000,-13.000000
1303380.539784,3.000000,2.000000,-29.000000,-18.000000,-3.000000,4.000000,2.000000,5.000000
1303380.539796,-9.000000,-1.000000,2.000000,11.000000,-3.000000,0.000000,0.000000,8.000000
1303380.577024,1.000000,-4.000000,1.000000,-2.000000,-11.000000,-5.000000,18.000000,-10.000000
1303380.577053,-27.000000,1.000000,13.000000,-8.000000,-7.000000,0.000000,-2.000000,17.000000
1303380.592245,-10.000000,-3.000000,-28.000000,-7.000000,0.000000,4.000000,5.000000,-2.000000
1303380.592256,-10.000000,-1.000000,21.000000,55.000000,5.000000,-6.000000,-70.000000,-28.000000
1303380.599971,12.000000,-6.000000,6.000000,-10.000000,2.000000,1.000000,60.000000,28.000000
1303380.600011,3.000000,1.000000,-12.000000,-39.000000,-6.000000,7.000000,13.000000,3.000000
1303380.600552,5.000000,-4.000000,23.000000,49.000000,19.000000,1.000000,1.000000,-2.000000
1303380.600563,-6.000000,-3.000000,-45.000000,-83.000000,-11.000000,-1.000000,-10.000000,-7.000000
1303380.602047,4.000000,3.000000,33.000000,89.000000,16.000000,12.000000,-2.000000,1.000000
1303380.602061,2.000000,0.000000,7.000000,-43.000000,-22.000000,-6.000000,-3.000000,-6.000000
1303380.602937,-10.000000,1.000000,15.000000,-31.000000,-7.000000,-1.000000,-1.000000,1.000000
1303380.602947,3.000000,2.000000,4.000000,-11.000000,-9.000000,-5.000000,1.000000,10.000000
1303380.607167,-10.000000,0.000000,18.000000,29.000000,11.000000,-3.000000,-8.000000,-10.000000
1303380.607178,2.000000,0.000000,-78.000000,-24.000000,1.000000,6.000000,15.000000,9.000000
1303380.637227,-6.000000,-2.000000,4.000000,3.000000,-3.000000,1.000000,0.000000,0.000000
1303380.637238,-1.000000,-1.000000,24.000000,-20.000000,0.000000,-8.000000,-15.000000,-12.000000
1303380.637755,1.000000,3.000000,-13.000000,4.000000,-8.000000,0.000000,19.000000,18.000000
1303380.637764,-9.000000,-3.000000,2.000000,-17.000000,-6.000000,-11.000000,-11.000000,-7.000000
1303380.659574,17.000000,-4.000000,-5.000000,-1.000000,1.000000,-1.000000,2.000000,-8.000000
1303380.659584,-32.000000,2.000000,-1.000000,10.000000,4.000000,-1.000000,0.000000,10.000000
1303380.674445,11.000000,-4.000000,-1.000000,20.000000,-5.000000,-3.000000,-15.000000,-8.000000
1303380.674455,6.000000,6.000000,42.000000,27.000000,10.000000,3.000000,-3.000000,-10.000000
1303380.689740,-25.000000,-3.000000,-27.000000,4.000000,4.000000,6.000000,-13.000000,-8.000000
1303380.689752,4.000000,-3.000000,-5.000000,-7.000000,-8.000000,-1.000000,19.000000,17.000000
1303380.697183,14.000000,0.000000,9.000000,21.000000,11.000000,1.000000,3.000000,4.000000
1303380.697194,-2.000000,-7.000000,-15.000000,-54.000000,-12.000000,-3.000000,-11.000000,-5.000000
1303380.712357,2.000000,-1.000000,15.000000,-8.000000,0.000000,-3.000000,29.000000,-3.000000
